I,II,V1,V2,V3,V4,V5,V6,III,aVR,aVL,aVF
117,58,-117,-78,-39,-244,-136,9,-59,-87,88,0
117,58,-117,-78,-39,-244,-136,9,-59,-87,88,0
117,58,-117,-78,-39,-244,-136,9,-59,-87,88,0
117,58,-117,-78,-39,-244,-136,9,-59,-87,88,0
126,78,-112,-63,-29,-234,-126,29,-48,-102,87,15
126,87,-107,-58,-19,-224,-117,39,-39,-106,82,24
126,97,-102,-53,-9,-214,-107,48,-29,-111,77,34
126,107,-97,-48,0,-204,-97,58,-19,-116,72,44
112,87,-97,-58,-9,-214,-107,58,-25,-99,68,31
107,78,-97,-58,-9,-214,-107,58,-29,-92,68,24
102,68,-97,-58,-9,-214,-107,58,-34,-85,68,17
97,58,-97,-58,-9,-214,-107,58,-39,-77,68,9
92,53,-107,-73,-29,-234,-126,43,-39,-72,65,7
87,48,-117,-78,-39,-244,-136,29,-39,-67,63,4
82,43,-126,-82,-48,-253,-146,14,-39,-62,60,2
78,39,-136,-87,-58,-263,-156,0,-39,-58,58,0
97,53,-126,-78,-39,-244,-146,9,-44,-75,70,4
107,68,-117,-68,-29,-234,-136,19,-39,-87,73,14
117,82,-107,-58,-19,-224,-126,29,-35,-99,76,23
126,97,-97,-48,-9,-214,-117,39,-29,-111,77,34
136,92,-112,-53,-24,-224,-131,29,-44,-114,90,24
136,87,-117,-58,-29,-234,-136,19,-49,-111,92,19
136,82,-122,-63,-34,-244,-141,9,-54,-109,95,14
136,78,-126,-68,-39,-253,-146,0,-58,-107,97,10
122,53,-117,-63,-29,-253,-156,0,-69,-87,95,-8
117,39,-117,-58,-29,-253,-156,0,-78,-78,97,-19
112,24,-117,-53,-29,-253,-156,0,-88,-68,100,-32
107,9,-117,-48,-29,-253,-156,0,-98,-58,102,-44
117,4,-112,-53,-34,-253,-146,9,-113,-60,115,-54
117,0,-107,-58,-39,-253,-146,9,-117,-58,117,-58
117,-4,-102,-63,-43,-253,-146,9,-121,-56,119,-62
117,-9,-97,-68,-48,-253,-146,9,-126,-54,121,-67
136,9,-97,-58,-48,-263,-156,4,-127,-72,131,-59
146,29,-97,-58,-48,-263,-156,0,-117,-87,131,-44
156,48,-97,-58,-48,-263,-156,-4,-108,-102,132,-30
165,68,-97,-58,-48,-263,-156,-9,-97,-116,131,-14
146,48,-102,-68,-58,-263,-165,-9,-98,-97,122,-25
126,39,-107,-68,-58,-263,-165,-9,-87,-82,106,-24
107,29,-112,-68,-58,-263,-165,-9,-78,-68,92,-24
87,19,-117,-68,-58,-263,-165,-9,-68,-53,77,-24
87,9,-117,-78,-73,-263,-175,-19,-78,-48,82,-34
87,0,-117,-78,-78,-263,-175,-19,-87,-43,87,-43
87,-9,-117,-78,-82,-263,-175,-19,-96,-39,91,-52
87,-19,-117,-78,-87,-263,-175,-19,-106,-34,96,-62
87,9,-107,-63,-73,-258,-180,-29,-78,-48,82,-34
87,29,-97,-58,-68,-253,-185,-29,-58,-58,72,-14
87,48,-87,-53,-63,-248,-190,-29,-39,-67,63,4
87,68,-78,-48,-58,-244,-195,-29,-19,-77,53,24
102,82,-82,-43,-48,-229,-175,-14,-20,-92,61,31
107,87,-87,-39,-48,-224,-165,-9,-20,-97,63,33
112,92,-92,-34,-48,-219,-156,-4,-20,-102,66,36
117,97,-97,-29,-48,-214,-146,0,-20,-107,68,38
92,78,-97,-43,-53,-224,-146,4,-14,-85,53,32
78,58,-97,-48,-58,-224,-146,9,-20,-68,49,19
63,39,-97,-53,-63,-224,-146,14,-24,-51,43,7
48,19,-97,-58,-68,-224,-146,19,-29,-33,38,-5
58,29,-82,-48,-53,-214,-131,24,-29,-43,43,0
58,39,-78,-39,-48,-204,-126,29,-19,-48,38,10
58,48,-73,-29,-43,-195,-122,34,-10,-53,34,19
58,58,-68,-19,-39,-185,-117,39,0,-58,29,29
43,34,-68,-19,-48,-190,-131,29,-9,-38,26,12
29,19,-68,-19,-48,-195,-136,19,-10,-24,19,4
14,4,-68,-19,-48,-200,-141,9,-10,-9,12,-3
0,-9,-68,-19,-48,-204,-146,0,-9,4,4,-9
29,9,-73,-24,-53,-214,-136,4,-20,-19,24,-5
48,29,-78,-29,-58,-214,-136,9,-19,-38,33,5
68,48,-82,-34,-63,-214,-136,14,-20,-58,44,14
87,68,-87,-39,-68,-214,-136,19,-19,-77,53,24
68,53,-102,-53,-73,-214,-146,9,-15,-60,41,19
58,48,-107,-58,-78,-214,-146,9,-10,-53,34,19
48,43,-112,-63,-82,-214,-146,9,-5,-45,26,19
39,39,-117,-68,-87,-214,-146,9,0,-39,19,19
29,48,-126,-78,-92,-219,-151,4,19,-38,5,33
19,48,-126,-78,-97,-224,-156,0,29,-33,-5,38
9,48,-126,-78,-102,-229,-161,-4,39,-28,-15,43
0,48,-126,-78,-107,-234,-165,-9,48,-24,-24,48
-4,24,-117,-73,-102,-224,-156,-4,28,-10,-16,26
-9,9,-107,-68,-97,-224,-156,0,18,0,-13,13
-14,-4,-97,-63,-92,-224,-156,4,10,9,-12,3
-19,-19,-87,-58,-87,-224,-156,9,0,19,-9,-9
0,-9,-92,-68,-87,-214,-156,9,-9,4,4,-9
9,0,-97,-68,-87,-214,-156,9,-9,-4,9,-4
19,9,-102,-68,-87,-214,-156,9,-10,-14,14,0
29,19,-107,-68,-87,-214,-156,9,-10,-24,19,4
48,43,-107,-68,-78,-209,-141,0,-5,-45,26,19
58,58,-107,-68,-78,-204,-136,0,0,-58,29,29
68,73,-107,-68,-78,-200,-131,0,5,-70,31,39
78,87,-107,-68,-78,-195,-126,0,9,-82,34,48
53,68,-97,-68,-82,-204,-141,0,15,-60,19,41
39,58,-97,-68,-87,-204,-146,0,19,-48,10,38
24,48,-97,-68,-92,-204,-151,0,24,-36,0,36
9,39,-97,-68,-97,-204,-156,0,30,-24,-10,34
-4,9,-87,-58,-87,-204,-146,-9,13,-2,-8,11
-9,-9,-87,-58,-87,-204,-146,-9,0,9,-4,-4
-14,-29,-87,-58,-87,-204,-146,-9,-15,21,0,-22
-19,-48,-87,-58,-87,-204,-146,-9,-29,33,5,-38
-146,-48,-58,-39,-68,-165,-126,39,98,97,-122,25
-87,-78,-78,-58,-87,-195,-156,0,9,82,-48,-34
-58,-68,-78,-68,-97,-195,-175,-29,-10,63,-24,-39
-58,-29,-58,-39,-87,-204,-185,-29,29,43,-43,0
0,-19,-58,-19,-87,-244,-234,-58,-19,9,9,-19
58,19,-39,0,-68,-244,-263,-87,-39,-38,48,-10
107,107,19,48,-9,-204,-263,-97,0,-107,53,53
117,97,39,68,19,-195,-302,-117,-20,-107,68,38
87,48,19,58,9,-204,-331,-136,-39,-67,63,4
29,68,19,68,39,-165,-302,-117,39,-48,-5,53
0,48,29,87,78,-87,-214,-78,48,-24,-24,48
-29,-29,-9,68,87,-19,-136,-48,0,29,-14,-14
-9,-9,-39,48,117,78,9,0,0,9,-4,-4
68,117,-48,58,195,224,204,68,49,-92,9,83
68,185,-68,68,273,409,458,126,117,-126,-24,151
58,234,-78,78,351,634,751,204,176,-146,-59,205
156,312,-68,97,419,819,1044,302,156,-234,0,234
195,351,-78,97,439,946,1298,390,156,-273,19,253
126,400,-107,78,448,1054,1512,468,274,-263,-74,337
126,488,-87,97,488,1171,1717,536,362,-307,-118,425
146,497,-58,136,556,1298,1903,585,351,-321,-102,424
58,439,-78,126,566,1346,2039,595,381,-248,-161,410
29,439,-97,87,517,1307,2069,566,410,-234,-190,424
107,419,-58,107,468,1122,1844,507,312,-263,-102,365
107,263,0,136,400,780,1366,380,156,-185,-24,209
68,175,29,156,302,370,819,253,107,-121,-19,141
68,175,48,156,204,0,292,156,107,-121,-19,141
39,97,48,165,136,-273,-175,68,58,-68,-9,77
-19,29,58,214,146,-361,-409,9,48,-5,-33,38
19,48,68,244,175,-312,-429,-29,29,-33,-5,38
97,48,97,273,204,-273,-419,-58,-49,-72,73,0
78,19,107,292,214,-263,-429,-87,-59,-48,68,-20
-9,29,117,302,224,-244,-409,-107,38,-10,-23,33
-78,-9,117,322,253,-214,-409,-136,69,43,-73,30
-68,-68,156,409,322,-185,-400,-136,0,68,-34,-34
-29,-39,224,517,419,-136,-351,-117,-10,34,-9,-24
0,58,283,605,478,-97,-302,-107,58,-29,-29,58
-19,87,312,653,497,-87,-283,-107,106,-34,-62,96
-39,29,341,692,497,-68,-263,-97,68,5,-53,48
-87,-29,351,712,468,-97,-263,-78,58,58,-72,14
-136,-9,380,732,409,-126,-263,-78,127,72,-131,59
-97,19,409,761,361,-146,-273,-87,116,39,-106,67
-9,0,429,790,331,-165,-292,-87,9,4,-9,4
-9,0,497,868,351,-156,-283,-68,9,4,-9,4
-78,0,556,936,370,-146,-253,-39,78,39,-78,39
-136,-39,536,917,341,-156,-244,-39,97,87,-116,29
-126,-78,478,810,273,-175,-253,-39,48,102,-87,-15
-97,-58,448,712,214,-175,-253,-39,39,77,-68,-9
-78,9,468,683,214,-136,-214,0,87,34,-82,48
-87,39,448,624,195,-136,-204,0,126,24,-106,82
-58,39,361,497,117,-185,-244,-48,97,9,-77,68
-29,78,322,409,78,-185,-224,-29,107,-24,-68,92
-9,126,292,361,97,-156,-165,19,135,-58,-72,130
48,156,214,253,48,-165,-165,9,108,-102,-30,132
58,107,156,175,0,-165,-165,0,49,-82,4,78
0,-48,136,136,0,-126,-136,19,-48,24,24,-48
29,-78,117,107,19,-107,-97,58,-107,24,68,-92
14,-68,92,78,4,-112,-97,53,-82,27,48,-75
9,-58,68,58,0,-117,-97,48,-67,24,38,-62
4,-48,43,39,-4,-122,-97,43,-52,22,28,-50
0,-39,19,19,-9,-126,-97,39,-39,19,19,-39
14,-53,-4,4,-19,-136,-107,34,-67,19,40,-60
19,-68,-19,-9,-29,-136,-107,29,-87,24,53,-77
24,-82,-34,-24,-39,-136,-107,24,-106,29,65,-94
29,-97,-48,-39,-48,-136,-107,19,-126,34,77,-111
19,-92,-58,-43,-39,-122,-102,19,-111,36,65,-101
9,-87,-58,-48,-39,-117,-97,19,-96,39,52,-91
0,-82,-58,-53,-39,-112,-92,19,-82,41,41,-82
-9,-78,-58,-58,-39,-107,-87,19,-69,43,30,-73
0,-92,-58,-58,-29,-97,-87,24,-92,46,46,-92
0,-97,-58,-58,-29,-97,-87,29,-97,48,48,-97
0,-102,-58,-58,-29,-97,-87,34,-102,51,51,-102
0,-107,-58,-58,-29,-97,-87,39,-107,53,53,-107
14,-117,-68,-78,-39,-102,-97,29,-131,51,72,-124
19,-117,-78,-87,-48,-107,-107,19,-136,49,77,-126
24,-117,-87,-97,-58,-112,-117,9,-141,46,82,-129
29,-117,-97,-107,-68,-117,-126,0,-146,44,87,-131
0,-136,-87,-107,-68,-107,-117,-9,-136,68,68,-136
-19,-146,-87,-107,-68,-107,-117,-9,-127,82,54,-136
-39,-156,-87,-107,-68,-107,-117,-9,-117,97,39,-136
-58,-165,-87,-107,-68,-107,-117,-9,-107,111,24,-136
-39,-141,-97,-117,-58,-97,-117,-9,-102,90,31,-121
-19,-126,-97,-117,-58,-97,-117,-9,-107,72,44,-116
0,-112,-97,-117,-58,-97,-117,-9,-112,56,56,-112
19,-97,-97,-117,-58,-97,-117,-9,-116,39,67,-106
9,-112,-112,-126,-73,-112,-131,-14,-121,51,65,-116
0,-126,-117,-126,-78,-117,-136,-19,-126,63,63,-126
-9,-141,-122,-126,-82,-122,-141,-24,-132,75,61,-136
-19,-156,-126,-126,-87,-126,-146,-29,-137,87,59,-146
-9,-156,-112,-117,-68,-112,-117,-9,-147,82,69,-151
0,-156,-97,-107,-58,-97,-97,0,-156,78,78,-156
9,-156,-82,-97,-48,-82,-78,9,-165,73,87,-160
19,-156,-68,-87,-39,-68,-58,19,-175,68,97,-165
14,-141,-68,-102,-43,-82,-63,19,-155,63,84,-148
9,-136,-68,-107,-48,-87,-68,19,-145,63,77,-140
4,-131,-68,-112,-53,-92,-73,19,-135,63,69,-133
0,-126,-68,-117,-58,-97,-78,19,-126,63,63,-126
4,-141,-78,-126,-68,-97,-78,14,-145,68,74,-143
9,-146,-87,-136,-68,-97,-78,9,-155,68,82,-150
14,-151,-97,-146,-68,-97,-78,4,-165,68,89,-158
19,-156,-107,-156,-68,-97,-78,0,-175,68,97,-165
4,-165,-117,-156,-58,-97,-68,9,-169,80,86,-167
-9,-175,-117,-156,-58,-97,-68,9,-166,92,78,-170
-24,-185,-117,-156,-58,-97,-68,9,-161,104,68,-173
-39,-195,-117,-156,-58,-97,-68,9,-156,117,58,-175
-24,-180,-131,-146,-53,-92,-63,19,-156,102,66,-168
-19,-175,-136,-146,-48,-87,-58,19,-156,97,68,-165
-14,-170,-141,-146,-43,-82,-53,19,-156,92,71,-163
-9,-165,-146,-146,-39,-78,-48,19,-156,87,73,-160
19,-146,-141,-136,-34,-68,-39,24,-165,63,92,-155
39,-126,-136,-136,-29,-58,-29,29,-165,43,102,-145
58,-107,-131,-136,-24,-48,-19,34,-165,24,111,-136
78,-87,-126,-136,-19,-39,-9,39,-165,4,121,-126
73,-102,-146,-156,-29,-39,-19,34,-175,14,124,-138
68,-117,-156,-165,-39,-39,-19,29,-185,24,126,-151
63,-131,-165,-175,-48,-39,-19,24,-194,34,128,-162
58,-146,-175,-185,-58,-39,-19,19,-204,44,131,-175
48,-151,-185,-190,-68,-48,-14,9,-199,51,123,-175
48,-156,-185,-195,-68,-48,-9,9,-204,54,126,-180
48,-161,-185,-200,-68,-48,-4,9,-209,56,128,-185
48,-165,-185,-204,-68,-48,0,9,-213,58,130,-189
68,-156,-175,-200,-58,-39,9,19,-224,44,146,-190
78,-146,-175,-195,-58,-29,19,19,-224,34,151,-185
87,-136,-175,-190,-58,-19,29,19,-223,24,155,-179
97,-126,-175,-185,-58,-9,39,19,-223,14,160,-174
78,-146,-175,-195,-48,0,48,24,-224,34,151,-185
68,-156,-175,-195,-48,9,58,29,-224,44,146,-190
58,-165,-175,-195,-48,19,68,34,-223,53,140,-194
48,-175,-175,-195,-48,29,78,39,-223,63,135,-199
34,-185,-190,-214,-53,29,87,34,-219,75,126,-202
29,-185,-195,-224,-58,29,87,29,-214,78,121,-199
24,-185,-200,-234,-63,29,87,24,-209,80,116,-197
19,-185,-204,-244,-68,29,87,19,-204,83,111,-194
48,-156,-200,-229,-63,48,102,34,-204,54,126,-180
78,-136,-195,-224,-58,58,117,39,-214,29,146,-175
107,-117,-190,-219,-53,68,131,43,-224,5,165,-170
136,-97,-185,-214,-48,78,146,48,-233,-19,184,-165
126,-117,-195,-224,-53,78,146,58,-243,-4,184,-180
126,-126,-195,-234,-58,78,146,58,-252,0,189,-189
126,-136,-195,-244,-63,78,146,58,-262,5,194,-199
126,-146,-195,-253,-68,78,146,58,-272,10,199,-209
112,-122,-209,-268,-73,73,146,53,-234,5,173,-178
97,-107,-214,-273,-78,68,146,48,-204,5,150,-155
82,-92,-219,-278,-82,63,146,43,-174,5,128,-133
68,-78,-224,-283,-87,58,146,39,-146,5,107,-112
73,-92,-219,-278,-78,73,165,58,-165,9,119,-128
78,-97,-214,-273,-68,87,185,68,-175,9,126,-136
82,-102,-209,-268,-58,102,204,78,-184,10,133,-143
87,-107,-204,-263,-48,117,224,87,-194,10,140,-150
9,-97,-263,-331,-107,87,204,68,-106,44,57,-101
117,-78,-244,-322,-97,97,214,87,-195,-19,156,-136
156,-146,-224,-283,-68,126,244,107,-302,-5,229,-224
87,-253,-234,-292,-68,117,234,107,-340,83,213,-296
87,-224,-244,-312,-78,87,214,97,-311,68,199,-267
73,-200,-229,-302,-73,97,229,107,-273,63,173,-236
68,-185,-214,-292,-68,107,234,117,-253,58,160,-219
63,-170,-200,-283,-63,117,239,126,-233,53,148,-201
58,-156,-185,-273,-58,126,244,136,-214,49,136,-185
63,-165,-180,-268,-58,117,253,146,-228,51,145,-196
87,-165,-180,-278,-58,112,253,146,-252,39,169,-208
53,-195,-175,-273,-58,97,239,136,-248,71,150,-221
-9,-224,-170,-273,-53,97,248,146,-215,116,103,-219
9,-185,-156,-268,-63,102,248,156,-194,88,101,-189
24,-190,-156,-278,-78,82,229,136,-214,83,119,-202
68,-190,-165,-273,-82,63,204,122,-258,61,163,-224
43,-185,-165,-268,-82,73,195,131,-228,71,135,-206
29,-175,-170,-263,-92,63,200,131,-204,73,116,-189
78,-165,-165,-258,-87,48,190,141,-243,43,160,-204
102,-190,-170,-253,-87,34,175,126,-292,44,197,-241
82,-190,-185,-239,-87,4,146,97,-272,54,177,-231
39,-214,-165,-209,-87,-9,136,107,-253,87,146,-233
34,-224,-146,-219,-78,-4,136,122,-258,95,146,-241
-14,-268,-141,-234,-78,-9,146,122,-254,141,120,-261
-63,-292,-141,-234,-78,-14,126,112,-229,177,83,-260
-14,-244,-122,-204,-68,-19,107,122,-230,129,108,-237
14,-229,-107,-185,-63,-34,97,107,-243,107,128,-236
58,-204,-97,-161,-53,-39,97,97,-262,73,160,-233
97,-185,-87,-136,-48,-39,107,117,-282,44,189,-233
73,-165,-107,-136,-53,-63,68,107,-238,46,155,-201
34,-161,-107,-141,-58,-82,48,92,-195,63,114,-178
19,-151,-102,-141,-58,-82,34,82,-170,66,94,-160
29,-141,-102,-131,-53,-82,24,73,-170,56,99,-155
48,-180,-97,-112,-58,-97,0,58,-228,66,138,-204
29,-219,-97,-112,-48,-117,-4,53,-248,95,138,-233
29,-204,-73,-112,-39,-102,0,58,-233,87,131,-218
48,-209,-87,-112,-48,-117,-4,58,-257,80,152,-233
73,-161,-78,-97,-43,-126,-9,68,-234,44,153,-197
107,-141,-68,-82,-34,-126,-19,63,-248,17,177,-194
107,-131,-58,-68,-29,-126,-24,63,-238,12,172,-184
141,-112,-48,-48,-24,-122,-29,53,-253,-14,197,-182
126,-97,-43,-34,-19,-112,-34,48,-223,-14,174,-160
82,-136,-48,-29,-29,-122,-48,29,-218,27,150,-177
68,-136,-43,-19,-9,-122,-39,43,-204,34,136,-170
112,-102,-14,-9,0,-107,-29,53,-214,-5,163,-158
122,-82,-4,-4,9,-97,-48,39,-204,-20,163,-143
87,-87,-4,0,4,-102,-53,34,-174,0,130,-130
97,-68,-4,4,-4,-112,-53,29,-165,-14,131,-116
112,-34,-4,0,-4,-122,-53,29,-146,-39,129,-90
97,-63,-34,-14,-24,-126,-73,24,-160,-17,128,-111
73,-92,-43,-14,-29,-122,-78,24,-165,9,119,-128
24,-126,-48,-19,-29,-126,-68,24,-150,51,87,-138
9,-146,-58,-24,-34,-131,-87,19,-155,68,82,-150
73,-78,-48,-9,-14,-122,-97,14,-151,2,112,-114
141,-24,-48,-4,-14,-122,-87,29,-165,-58,153,-94
136,-9,-48,-4,-19,-126,-102,9,-145,-63,140,-77
146,4,-63,-9,-29,-126,-112,-4,-142,-75,144,-69
146,-14,-58,-19,-29,-131,-117,-9,-160,-66,153,-87
102,-14,-48,-19,-39,-136,-112,-4,-116,-44,109,-65
48,-34,-53,-29,-48,-136,-117,-9,-82,-7,65,-58
48,-58,-58,-43,-53,-141,-122,-14,-106,5,77,-82
24,-58,-63,-34,-48,-117,-112,-14,-82,17,53,-70
-4,-48,-73,-34,-43,-131,-112,-4,-44,26,20,-46
48,-14,-78,-34,-48,-131,-112,-14,-62,-17,55,-38
78,19,-82,-34,-43,-131,-107,-14,-59,-48,68,-20
53,-4,-58,-29,-48,-131,-117,-4,-57,-24,55,-30
48,-34,-58,-29,-48,-126,-122,0,-82,-7,65,-58
82,-14,-58,-24,-39,-122,-122,9,-96,-34,89,-55
102,-14,-63,-24,-39,-117,-102,19,-116,-44,109,-65
68,-43,-58,-19,-48,-117,-112,-9,-111,-12,89,-77
63,-34,-78,-34,-63,-141,-131,-34,-97,-14,80,-65
48,4,-73,-39,-63,-146,-131,-43,-44,-26,46,-20
78,4,-73,-39,-58,-146,-131,-48,-74,-41,76,-35
73,-14,-68,-39,-48,-136,-122,-24,-87,-29,80,-50
48,-24,-58,-29,-43,-122,-112,-19,-72,-12,60,-48
39,-14,-39,-9,-34,-102,-102,4,-53,-12,46,-33
63,-4,-24,0,-24,-87,-87,29,-67,-29,65,-35
78,-9,-43,-9,-29,-107,-107,29,-87,-34,82,-48
78,-34,-34,-4,-34,-107,-112,24,-112,-22,95,-73
82,-29,-43,-14,-43,-126,-107,-4,-111,-26,96,-70
102,-24,-68,-39,-68,-156,-146,-34,-126,-39,114,-75
73,-19,-68,-39,-68,-151,-136,-24,-92,-27,82,-55
63,-19,-68,-34,-63,-131,-122,-14,-82,-22,72,-50
63,-24,-68,-34,-63,-126,-122,-14,-87,-19,75,-55
48,-19,-78,-39,-63,-131,-122,-19,-67,-14,57,-43
68,4,-102,-53,-78,-136,-126,-29,-64,-36,66,-30
78,-19,-107,-68,-82,-141,-131,-34,-97,-29,87,-58
63,-48,-102,-63,-87,-146,-131,-34,-111,-7,87,-79
43,-24,-97,-53,-82,-151,-117,-24,-67,-9,55,-45
-24,-63,-48,-4,-34,-82,-73,34,-39,43,7,-51
-34,-122,-48,-4,-43,-87,-73,29,-88,78,27,-105
43,-97,-73,-29,-73,-107,-102,0,-140,27,91,-118
68,-43,-73,-39,-78,-126,-122,-19,-111,-12,89,-77
29,-39,-58,-14,-63,-117,-122,-24,-68,5,48,-53
4,-53,-48,-4,-63,-122,-131,-34,-57,24,30,-55
-34,-126,-63,-14,-82,-156,-175,-63,-92,80,29,-109
-9,-161,-48,-9,-82,-180,-224,-92,-152,85,71,-156
122,-53,19,39,-48,-175,-234,-87,-175,-34,148,-114
131,-9,29,58,-34,-185,-278,-117,-140,-61,135,-74
-9,-126,14,58,-29,-214,-331,-161,-117,67,54,-121
-82,-126,14,73,-14,-190,-341,-156,-44,104,-19,-85
-53,-4,-4,87,14,-156,-322,-156,49,28,-51,22
24,78,-24,78,39,-102,-292,-165,54,-51,-15,66
43,82,-24,73,58,-39,-200,-126,39,-62,2,60
-24,58,-4,102,131,102,-39,-48,82,-17,-53,70
-24,14,4,146,253,312,204,48,38,5,-31,26
68,34,-4,185,405,566,512,161,-34,-51,51,0
141,190,-43,175,478,805,819,253,49,-165,46,119
170,307,-73,136,478,990,1107,336,137,-238,16,222
146,326,-78,122,483,1151,1381,439,180,-236,-17,253
161,468,-58,126,512,1307,1678,556,307,-314,-73,387
229,692,-39,126,517,1483,1922,653,463,-460,-117,577
258,756,-14,141,512,1610,2098,707,498,-507,-120,627
229,732,-4,122,488,1688,2230,741,503,-480,-137,617
190,722,-29,34,370,1634,2254,727,532,-456,-171,627
161,624,-58,-82,175,1351,1995,663,463,-392,-151,543
161,444,-68,-165,-58,858,1503,546,283,-302,-61,363
161,317,-73,-253,-283,346,966,434,156,-239,2,236
126,263,-82,-292,-453,-73,488,331,137,-194,-5,200
48,200,-78,-307,-527,-341,102,268,152,-124,-52,176
34,107,-117,-370,-566,-429,-112,209,73,-70,-19,90
141,9,-195,-448,-570,-444,-190,117,-132,-75,136,-61
219,-53,-234,-439,-536,-444,-219,48,-272,-83,245,-162
190,-58,-195,-356,-424,-366,-180,58,-248,-66,219,-153
219,0,-195,-297,-322,-263,-122,87,-219,-109,219,-109
258,29,-258,-317,-307,-248,-151,39,-229,-143,243,-100
185,-4,-273,-292,-287,-253,-180,-9,-189,-90,187,-96
156,34,-195,-185,-185,-180,-126,19,-122,-95,139,-44
170,48,-156,-122,-122,-136,-82,39,-122,-109,146,-37
97,-19,-146,-107,-117,-141,-82,24,-116,-39,106,-67
58,-19,-122,-97,-102,-141,-78,14,-77,-19,67,-48
175,63,-102,-82,-97,-136,-68,19,-112,-119,143,-24
190,92,-102,-82,-102,-131,-87,19,-98,-141,144,-3
190,73,-107,-87,-97,-126,-97,14,-117,-131,153,-22
165,82,-92,-73,-92,-126,-92,24,-83,-123,124,0
136,53,-82,-58,-68,-122,-87,19,-83,-94,109,-15
126,53,-82,-48,-68,-126,-102,14,-73,-89,99,-10
146,53,-92,-39,-78,-141,-117,9,-93,-99,119,-20
141,29,-87,-34,-78,-151,-131,-4,-112,-85,126,-41
122,-24,-73,-24,-73,-161,-131,-14,-146,-49,134,-85
87,-9,-73,-24,-73,-161,-131,-19,-96,-39,91,-52
102,4,-78,-24,-68,-146,-131,-9,-98,-53,100,-47
112,-19,-82,-34,-78,-151,-141,-19,-131,-46,121,-75
97,-4,-78,-34,-73,-146,-141,-19,-101,-46,99,-52
117,29,-68,-29,-58,-131,-136,-14,-88,-73,102,-29
78,-19,-73,-29,-53,-122,-146,-19,-97,-29,87,-58
39,-82,-78,-24,-58,-126,-146,-19,-121,21,80,-101
4,-92,-78,-29,-63,-131,-146,-19,-96,44,50,-94
29,-78,-82,-39,-73,-131,-146,-19,-107,24,68,-92
58,-39,-87,-39,-63,-117,-146,-34,-97,-9,77,-68
73,-9,-73,-29,-58,-112,-141,-19,-82,-32,77,-45
78,19,-63,-19,-39,-92,-126,-9,-59,-48,68,-20
92,43,-58,-9,-39,-78,-126,-4,-49,-67,70,-3
112,24,-53,-4,-24,-78,-117,-14,-88,-68,100,-32
112,43,-39,9,-19,-68,-122,-9,-69,-77,90,-13
107,43,-29,14,-19,-68,-122,-9,-64,-75,85,-10
58,4,-24,19,-24,-73,-131,-19,-54,-31,56,-25
63,-34,-43,-4,-53,-92,-146,-34,-97,-14,80,-65
102,4,-43,-9,-43,-87,-146,-24,-98,-53,100,-47
136,24,-43,-19,-43,-97,-136,-29,-112,-80,124,-44
141,24,-68,-34,-68,-117,-151,-48,-117,-82,129,-46
97,-29,-102,-63,-82,-122,-165,-58,-126,-34,111,-77
53,-43,-107,-63,-92,-112,-161,-48,-96,-5,74,-69
39,-9,-102,-43,-78,-112,-156,-48,-48,-15,43,-28
34,-39,-107,-43,-68,-112,-151,-48,-73,2,53,-56
68,-9,-102,-19,-48,-107,-131,-43,-77,-29,72,-43
117,29,-82,-14,-39,-87,-112,-34,-88,-73,102,-29
151,34,-78,-14,-34,-68,-107,-29,-117,-92,134,-41
141,63,-82,-24,-48,-87,-107,-24,-78,-102,109,-7
112,87,-82,-9,-43,-82,-117,-34,-25,-99,68,31
126,73,-73,-9,-29,-63,-117,-29,-53,-99,89,10
131,34,-87,-9,-29,-73,-126,-34,-97,-82,114,-31
136,82,-73,-9,-39,-92,-141,-58,-54,-109,95,14
151,58,-63,-4,-34,-97,-141,-63,-93,-104,122,-17
131,39,-73,-4,-34,-87,-136,-48,-92,-85,111,-26
92,34,-58,-4,-24,-73,-126,-34,-58,-63,75,-12
63,43,-58,0,-24,-58,-112,-24,-20,-53,41,11
102,29,-53,4,-24,-58,-117,-29,-73,-65,87,-22
92,58,-53,4,-24,-58,-107,-34,-34,-75,63,12
87,63,-58,0,-29,-58,-126,-39,-24,-75,55,19
63,29,-73,-4,-34,-58,-131,-43,-34,-46,48,-2
78,9,-58,-4,-19,-53,-126,-48,-69,-43,73,-30
82,29,-43,-4,-19,-53,-126,-34,-53,-55,67,-12
107,24,-39,0,-24,-53,-126,-29,-83,-65,95,-29
136,19,-48,4,-19,-73,-141,-34,-117,-77,126,-49
122,24,-73,-9,-29,-82,-175,-43,-98,-73,110,-37
102,19,-58,0,-24,-82,-151,-48,-83,-60,92,-32
97,4,-63,-4,-9,-53,-141,-43,-93,-50,95,-44
92,34,-78,-9,-9,-43,-141,-48,-58,-63,75,-12
73,43,-68,4,4,-43,-131,-48,-30,-58,51,6
58,19,-68,4,4,-48,-131,-58,-39,-38,48,-10
24,-4,-82,-19,0,-73,-141,-73,-28,-10,26,-16
9,-29,-82,-19,0,-58,-141,-73,-38,10,23,-33
39,-9,-58,-4,14,-34,-117,-58,-48,-15,43,-28
53,48,-58,9,34,-29,-112,-53,-5,-50,29,21
58,48,-53,29,39,-24,-112,-53,-10,-53,34,19
39,43,-43,53,53,-4,-107,-43,4,-41,17,23
48,68,-53,53,43,-14,-117,-58,20,-58,14,44
82,63,-63,43,53,-19,-122,-63,-19,-72,50,22
117,48,-58,48,58,-9,-126,-68,-69,-82,93,-10
126,43,-68,39,68,-4,-112,-63,-83,-84,104,-20
102,48,-68,43,68,-9,-122,-63,-54,-75,78,-3
68,53,-78,43,63,-19,-131,-82,-15,-60,41,19
58,58,-63,53,63,-14,-131,-78,0,-58,29,29
53,48,-43,78,92,0,-117,-63,-5,-50,29,21
63,29,-29,87,107,29,-102,-58,-34,-46,48,-2
92,48,-24,92,126,34,-87,-58,-44,-70,68,2
122,87,-19,102,136,43,-78,-58,-35,-104,78,26
141,87,-19,97,151,63,-63,-58,-54,-114,97,16
131,78,-34,92,141,58,-92,-87,-53,-104,92,12
82,39,-48,97,126,43,-102,-97,-43,-60,62,-2
73,39,-29,117,165,68,-82,-78,-34,-56,53,2
126,58,-19,126,175,78,-68,-68,-68,-92,97,-5
165,48,-29,126,156,78,-68,-82,-117,-106,141,-34
146,48,-19,131,190,97,-63,-82,-98,-97,122,-25
156,68,-19,141,219,117,-43,-73,-88,-112,122,-10
165,82,-24,141,234,117,-43,-73,-83,-123,124,0
136,73,-19,151,224,117,-34,-82,-63,-104,99,5
146,97,-14,156,224,131,-29,-92,-49,-121,97,24
141,87,-19,156,224,131,-29,-92,-54,-114,97,16
126,53,-14,156,229,131,-24,-97,-73,-89,99,-10
122,48,-19,156,248,126,-24,-112,-74,-85,98,-13
131,73,-24,161,248,131,-24,-112,-58,-102,94,7
117,24,-29,161,253,136,-39,-117,-93,-70,105,-34
107,4,-43,151,248,136,-53,-122,-103,-55,105,-49
92,-14,-39,170,253,146,-48,-117,-106,-39,99,-60
82,-9,-34,180,268,161,-39,-112,-91,-36,86,-50
78,-4,-29,185,273,165,-29,-107,-82,-37,80,-43
78,4,-34,190,283,170,-14,-102,-74,-41,76,-35
122,24,-24,190,292,185,-14,-102,-98,-73,110,-37
131,34,-24,185,278,180,-19,-107,-97,-82,114,-31
126,14,-39,175,268,156,-34,-126,-112,-70,119,-49
131,-9,-39,170,263,151,-39,-131,-140,-61,135,-74
112,-43,-29,175,268,161,-29,-122,-155,-34,133,-99
112,-24,-29,180,263,170,-29,-122,-136,-44,124,-80
117,-24,-29,180,268,185,-19,-117,-141,-46,129,-82
131,-9,-9,185,273,200,9,-102,-140,-61,135,-74
136,29,-4,170,263,195,4,-107,-107,-82,121,-39
141,43,-29,165,258,185,-4,-112,-98,-92,119,-27
141,48,-43,156,244,161,-14,-126,-93,-94,117,-22
131,58,-48,151,239,165,-19,-122,-73,-94,102,-7
146,39,-29,165,248,185,-9,-107,-107,-92,126,-34
156,34,-29,165,248,180,9,-97,-122,-95,139,-44
151,34,-19,170,244,180,19,-92,-117,-92,134,-41
107,24,-19,175,234,185,24,-92,-83,-65,95,-29
48,0,-9,175,244,180,29,-82,-48,-24,48,-24
48,0,0,175,229,180,34,-68,-48,-24,48,-24
68,34,0,170,214,185,39,-53,-34,-51,51,0
34,58,19,165,214,190,43,-34,24,-46,5,41
19,29,19,156,200,175,43,-39,10,-24,4,19
19,19,14,136,185,161,39,-43,0,-19,9,9
24,39,9,126,151,141,24,-34,15,-31,4,27
19,39,4,107,122,126,14,-39,20,-29,0,29
19,14,-19,87,97,112,-4,-43,-5,-16,12,4
24,29,-29,63,73,87,-14,-53,5,-26,9,17
29,43,-34,68,68,78,-19,-58,14,-36,7,28
19,34,-29,68,73,63,-24,-58,15,-26,2,24
39,63,-39,63,63,73,-34,-48,24,-51,7,43
97,107,-39,58,39,48,-48,-63,10,-102,43,58
102,136,-34,43,29,34,-29,-43,34,-119,34,85
87,136,-34,39,24,19,-29,-34,49,-111,19,92
39,78,-53,14,14,9,-39,-34,39,-58,0,58
43,63,-73,4,-9,9,-48,-39,20,-53,11,41
48,68,-58,-9,-14,0,-48,-39,20,-58,14,44
24,63,-48,19,-14,0,-43,-39,39,-43,-7,51
4,58,-29,4,-14,-9,-48,-39,54,-31,-25,56
29,58,-39,0,-29,-14,-48,-34,29,-43,0,43
0,53,-34,-4,-39,-29,-48,-29,53,-26,-26,53
-19,63,-29,-4,-53,-39,-53,-24,82,-22,-50,72
-4,48,-43,-14,-58,-43,-58,-19,52,-22,-28,50
0,43,-53,-39,-73,-68,-68,-29,43,-21,-21,43
-14,34,-63,-43,-82,-87,-78,-39,48,-10,-31,41
-9,24,-68,-53,-78,-78,-87,-39,33,-7,-21,28
4,24,-58,-43,-73,-73,-82,-29,20,-14,-8,22
14,73,-53,-29,-68,-68,-92,-29,59,-43,-22,66
34,48,-63,-43,-68,-73,-97,-39,14,-41,10,31
53,68,-48,-43,-73,-68,-73,-29,15,-60,19,41
68,73,-43,-43,-68,-68,-73,-24,5,-70,31,39
63,63,-34,-39,-68,-68,-78,-24,0,-63,31,31
48,53,-29,-24,-73,-73,-82,-29,5,-50,21,29
43,43,-48,-39,-82,-78,-107,-39,0,-43,21,21
29,4,-43,-34,-82,-82,-117,-43,-25,-16,27,-10
9,-14,-43,-34,-97,-87,-117,-43,-23,2,16,-18
24,-19,-39,-34,-92,-82,-112,-39,-43,-2,33,-31
24,-29,-34,-24,-78,-78,-87,-39,-53,2,38,-41
4,-29,-24,0,-48,-68,-73,-24,-33,12,18,-31
-24,-14,-34,-14,-68,-87,-82,-39,10,19,-17,-2
14,14,-34,-29,-68,-78,-97,-39,0,-14,7,7
14,4,-34,-29,-63,-43,-82,-29,-10,-9,12,-3
-19,-14,-24,-29,-68,-53,-87,-39,5,16,-12,-4
-14,14,-39,-29,-73,-68,-97,-39,28,0,-21,21
24,43,-48,-29,-78,-78,-102,-39,19,-33,2,31
43,68,-34,-14,-82,-87,-107,-48,25,-55,9,46
14,48,-29,-14,-82,-78,-92,-39,34,-31,-10,41
-14,29,-24,-9,-82,-78,-92,-34,43,-7,-28,36
9,14,-39,-9,-78,-87,-97,-39,5,-11,2,9
34,0,-53,-14,-73,-97,-107,-48,-34,-17,34,-17
34,9,-53,-19,-63,-92,-107,-48,-25,-21,29,-8
4,0,-68,-19,-63,-87,-102,-48,-4,-2,4,-2
24,14,-34,-9,-63,-73,-102,-43,-10,-19,17,2
48,0,-39,-9,-63,-68,-112,-43,-48,-24,48,-24
4,-43,-53,-9,-73,-87,-131,-63,-47,19,25,-45
-48,-53,-53,4,-78,-87,-122,-53,-5,50,-21,-29
-53,-14,-48,4,-63,-82,-112,-53,39,33,-46,12
-39,4,-34,14,-63,-63,-107,-39,43,17,-41,23
-14,9,-29,9,-58,-58,-107,-39,23,2,-18,16
-29,-14,-43,0,-53,-58,-112,-48,15,21,-22,0
-14,-19,-68,-19,-78,-87,-122,-73,-5,16,-4,-12
39,-43,-82,-29,-87,-97,-136,-82,-82,2,60,-62
68,-19,-73,-24,-82,-82,-136,-68,-87,-24,77,-53
34,-14,-68,-29,-82,-82,-126,-63,-48,-10,41,-31
34,-24,-63,-24,-92,-78,-136,-58,-58,-5,46,-41
43,-19,-58,-19,-87,-73,-126,-48,-62,-12,52,-40
34,0,-39,14,-73,-63,-102,-43,-34,-17,34,-17
29,4,-29,19,-68,-53,-102,-39,-25,-16,27,-10
24,9,-19,24,-63,-43,-107,-34,-15,-16,19,-3
19,-29,-14,29,-58,-39,-107,-29,-48,5,33,-38
19,-4,-19,19,-63,-53,-117,-43,-23,-7,21,-13
-9,9,-34,-4,-68,-58,-122,-48,18,0,-13,13
-14,14,-39,-14,-73,-63,-122,-58,28,0,-21,21
0,-14,-43,-24,-78,-78,-117,-68,-14,7,7,-14
-19,-53,-58,-24,-82,-87,-122,-78,-34,36,7,-43
-29,-63,-58,-24,-87,-87,-131,-78,-34,46,2,-48
-39,-19,-53,-19,-87,-73,-141,-73,20,29,-29,0
-48,-9,-48,-14,-87,-68,-146,-73,39,28,-43,15
-14,-43,-34,-4,-78,-53,-136,-68,-29,28,7,-36
-9,-73,-24,9,-68,-53,-122,-58,-64,41,27,-68
-53,-68,-14,19,-68,-58,-112,-48,-15,60,-19,-41
-24,-63,-4,29,-58,-43,-102,-34,-39,43,7,-51
9,-48,-14,19,-63,-48,-92,-34,-57,19,33,-52
-4,-39,-19,14,-68,-48,-97,-43,-35,21,15,-37
-19,-34,-24,9,-73,-53,-102,-53,-15,26,-2,-24
-24,-39,-39,4,-82,-53,-122,-73,-15,31,-4,-27
-39,-78,-53,0,-82,-63,-126,-82,-39,58,0,-58
-48,-92,-48,-4,-82,-68,-131,-82,-44,70,-2,-68
-53,-78,-63,-14,-92,-78,-141,-82,-25,65,-14,-51
-43,-73,-68,-29,-102,-82,-151,-87,-30,58,-6,-51
-19,-92,-48,-19,-87,-68,-141,-73,-73,55,27,-82
-4,-107,-34,-4,-68,-63,-122,-63,-103,55,49,-105
19,-92,-24,4,-63,-58,-112,-58,-111,36,65,-101
48,-68,-34,14,-68,-53,-102,-53,-116,10,82,-92
29,-34,-14,19,-53,-48,-102,-63,-63,2,46,-48
14,-14,9,34,-53,-39,-92,-53,-28,0,21,-21
4,-9,0,24,-58,-48,-92,-63,-13,2,8,-11
9,-29,14,24,-58,-48,-92,-63,-38,10,23,-33
-4,-53,9,19,-73,-43,-107,-73,-49,28,22,-51
-24,-73,0,9,-82,-53,-112,-68,-49,48,12,-61
-68,-68,-24,-14,-97,-73,-122,-82,0,68,-34,-34
-92,-68,-39,-34,-122,-92,-136,-102,24,80,-58,-22
-63,-87,-48,-39,-122,-92,-146,-92,-24,75,-19,-55
-14,-102,-43,-29,-112,-78,-131,-78,-88,58,37,-95
14,-82,-29,-19,-97,-63,-117,-63,-96,34,55,-89
9,-73,-43,-39,-112,-78,-126,-78,-82,32,45,-77
-4,-68,-48,-39,-126,-82,-131,-92,-64,36,30,-66
9,-48,-43,-39,-117,-78,-131,-82,-57,19,33,-52
-29,-68,-29,-19,-82,-63,-117,-73,-39,48,5,-53
-68,-117,-14,-14,-82,-58,-117,-73,-49,92,-9,-83
-19,-112,-14,-4,-73,-58,-112,-82,-93,65,37,-102
0,-78,-14,-4,-87,-58,-102,-73,-78,39,39,-78
-39,-112,-14,-9,-87,-58,-102,-73,-73,75,17,-92
-39,-112,-24,-19,-87,-63,-102,-73,-73,75,17,-92
0,-68,-34,-29,-92,-73,-122,-78,-68,34,34,-68
9,-73,-43,-34,-102,-78,-126,-82,-82,32,45,-77
29,-63,-53,-34,-107,-78,-126,-82,-92,17,60,-77
63,-48,-63,-19,-102,-73,-122,-82,-111,-7,87,-79
43,-48,-24,0,-82,-53,-102,-63,-91,2,67,-69
4,-58,-19,9,-68,-53,-92,-53,-62,27,33,-60
4,-68,-19,9,-68,-48,-87,-43,-72,32,38,-70
19,-82,-14,9,-68,-48,-82,-39,-101,31,60,-91
9,-68,4,19,-58,-39,-87,-34,-77,29,43,-72
9,-63,-9,-4,-78,-63,-112,-58,-72,27,40,-67
19,-48,-24,-19,-92,-78,-126,-58,-67,14,43,-57
43,-29,-24,-4,-92,-68,-92,-48,-72,-7,57,-50
0,-58,4,43,-48,-34,-63,-9,-58,29,29,-58
-58,-146,-63,-34,-107,-92,-122,-63,-88,102,15,-117
-58,-97,-63,-39,-102,-97,-122,-68,-39,77,-9,-68
39,58,9,29,-39,-39,-58,-19,19,-48,10,38
48,24,9,19,-43,-39,-63,-29,-24,-36,36,0
48,0,9,19,-48,-39,-68,-29,-48,-24,48,-24
48,-24,9,19,-53,-39,-73,-29,-72,-12,60,-48
48,-48,9,19,-58,-39,-78,-29,-96,0,72,-72
34,-34,19,19,-58,-48,-78,-39,-68,0,51,-51
29,-29,19,19,-58,-48,-78,-39,-58,0,43,-43
24,-24,19,19,-58,-48,-78,-39,-48,0,36,-36
19,-19,19,19,-58,-48,-78,-39,-38,0,28,-28
4,-43,-4,0,-73,-63,-87,-53,-47,19,25,-45
-9,-58,-19,-9,-87,-68,-97,-58,-49,33,20,-53
-24,-73,-34,-19,-102,-73,-107,-63,-49,48,12,-61
-39,-87,-48,-29,-117,-78,-117,-68,-48,63,4,-67
-53,-78,-43,-24,-102,-68,-112,-58,-25,65,-14,-51
-58,-68,-39,-19,-97,-68,-107,-58,-10,63,-24,-39
-63,-58,-34,-14,-92,-68,-102,-58,5,60,-34,-26
-68,-48,-29,-9,-87,-68,-97,-58,20,58,-44,-14
-53,-73,-14,0,-78,-48,-92,-43,-20,63,-16,-46
-19,-87,-9,9,-78,-39,-78,-29,-68,53,24,-77
24,-92,-9,4,-68,-34,-73,-24,-116,34,70,-104
9,-126,-4,14,-58,-39,-82,-29,-135,58,72,-130
-48,-161,0,24,-48,-24,-63,-29,-113,104,32,-137
-53,-146,9,29,-43,-9,-53,-19,-93,99,20,-119
-53,-165,14,19,-53,-19,-63,-39,-112,109,29,-138
-24,-180,9,24,-53,-29,-78,-53,-156,102,66,-168
-58,-170,9,34,-48,-4,-87,-39,-112,114,27,-141
-78,-156,9,34,-43,0,-68,-29,-78,117,0,-117
-34,-131,19,34,-34,0,-63,-9,-97,82,31,-114
-14,-141,19,34,-29,0,-63,-14,-127,77,56,-134
-34,-126,4,29,-34,-14,-78,-29,-92,80,29,-109
-34,-112,14,43,-29,-14,-78,-19,-78,73,22,-95
4,-82,24,29,-24,-4,-68,-4,-86,39,45,-84
0,-87,19,9,-29,-4,-48,-4,-87,43,43,-87
-24,-97,0,0,-39,-9,-63,-19,-73,60,24,-85
-14,-82,-4,0,-48,-19,-97,-24,-68,48,27,-75
-14,-92,-4,0,-63,-39,-112,-53,-78,53,32,-85
0,-92,-9,4,-73,-48,-117,-78,-92,46,46,-92
0,-92,-9,4,-78,-39,-97,-68,-92,46,46,-92
0,-97,-19,0,-78,-43,-107,-63,-97,48,48,-97
-24,-107,-19,-9,-78,-53,-107,-63,-83,65,29,-95
-24,-112,-14,-14,-73,-43,-102,-58,-88,68,32,-100
-9,-112,-24,0,-58,-19,-78,-48,-103,60,47,-107
-9,-131,-19,14,-68,-14,-92,-43,-122,70,56,-126
-39,-151,-19,19,-53,-24,-87,-39,-112,95,36,-131
-48,-117,4,24,-39,0,-73,-24,-69,82,10,-93
-48,-102,-9,24,-39,-4,-63,-19,-54,75,3,-78
-24,-73,-9,24,-39,0,-63,-19,-49,48,12,-61
9,-73,-9,24,-34,4,-68,-24,-82,32,45,-77
9,-82,-9,24,-34,9,-68,-24,-91,36,50,-86
43,-68,-9,14,-39,4,-78,-34,-111,12,77,-89
24,-48,-9,9,-43,4,-82,-34,-72,12,48,-60
-24,-82,-19,4,-63,-4,-97,-48,-58,53,17,-70
-43,-78,-19,4,-53,-4,-87,-29,-35,60,-4,-56
4,-58,-9,-9,-68,-9,-92,-24,-62,27,33,-60
4,-73,-24,-19,-78,-19,-107,-48,-77,34,40,-75
-29,-102,-39,-29,-92,-34,-117,-63,-73,65,22,-87
-19,-107,-53,-39,-112,-53,-122,-78,-88,63,34,-97
-9,-92,-39,-29,-97,-48,-117,-63,-83,50,37,-87
-14,-102,-43,-19,-97,-43,-117,-58,-88,58,37,-95
-29,-112,-39,-4,-92,-29,-112,-48,-83,70,27,-97
-68,-126,-29,4,-82,-24,-92,-39,-58,97,-5,-92
-82,-136,-29,-4,-82,-24,-117,-48,-54,109,-14,-95
-73,-112,-29,-4,-73,-24,-117,-63,-39,92,-17,-75
-48,-92,-29,-4,-73,-24,-107,-48,-44,70,-2,-68
-97,-112,-29,-9,-78,-29,-122,-68,-15,104,-41,-63
-102,-136,-43,-24,-92,-43,-131,-82,-34,119,-34,-85
-68,-141,-34,-19,-87,-48,-131,-73,-73,104,2,-107
-78,-126,-19,-14,-92,-53,-122,-63,-48,102,-15,-87
-97,-131,-19,-19,-97,-53,-122,-63,-34,114,-31,-82
-78,-141,-24,-34,-102,-63,-131,-78,-63,109,-7,-102
-92,-156,-29,-34,-102,-48,-122,-82,-64,124,-14,-110
-122,-161,-39,-34,-102,-63,-122,-78,-39,141,-41,-100
-68,-141,-43,-34,-112,-63,-122,-92,-73,104,2,-107
-29,-126,-24,-19,-97,-53,-112,-78,-97,77,34,-111
-58,-141,0,-9,-87,-53,-107,-73,-83,99,12,-112
-68,-170,9,-4,-82,-48,-107,-63,-102,119,17,-136
-39,-151,19,4,-68,-43,-102,-48,-112,95,36,-131
24,-92,0,-4,-68,-39,-82,-29,-116,34,70,-104
29,-82,-4,-9,-78,-39,-102,-43,-111,26,70,-96
63,-34,-34,-24,-92,-63,-122,-63,-97,-14,80,-65
87,43,-39,-29,-92,-68,-122,-68,-44,-65,65,0
63,-14,-48,-39,-92,-78,-126,-78,-77,-24,70,-45
0,-63,-58,-48,-97,-78,-131,-78,-63,31,31,-63
-73,-112,-63,-48,-107,-73,-136,-87,-39,92,-17,-75
-131,-141,-58,-39,-112,-63,-141,-78,-10,136,-60,-75
-87,-117,-63,-48,-122,-73,-146,-82,-30,102,-28,-73
-39,-92,-63,-48,-117,-78,-146,-73,-53,65,7,-72
-14,-97,-43,-34,-112,-73,-141,-68,-83,55,34,-90
14,-73,-43,-34,-112,-87,-126,-87,-87,29,50,-80
24,-63,-48,-43,-117,-97,-151,-87,-87,19,55,-75
-4,-63,-39,-39,-117,-97,-146,-82,-59,33,27,-61
-24,-68,-29,-29,-112,-82,-126,-68,-44,46,10,-56
-34,-78,-19,-24,-112,-82,-122,-63,-44,56,5,-61
-29,-92,-34,-29,-122,-102,-126,-82,-63,60,17,-77
-19,-87,-48,-39,-131,-102,-136,-92,-68,53,24,-77
-9,-122,-53,-48,-131,-102,-146,-97,-113,65,52,-117
-24,-161,-48,-39,-131,-102,-151,-97,-137,92,56,-149
-151,-141,0,14,-53,-43,-97,-34,10,146,-80,-65
-141,-82,-19,-14,-82,-63,-112,-53,59,111,-100,-11
14,-53,-87,-82,-151,-126,-180,-117,-67,19,40,-60
14,-68,-82,-87,-151,-126,-180,-126,-82,27,48,-75
-117,-122,-53,-58,-126,-97,-151,-107,-5,119,-56,-63
-68,-126,-68,-63,-131,-97,-161,-122,-58,97,-5,-92
63,-73,-58,-43,-122,-92,-161,-102,-136,5,99,-104
63,-68,-24,-14,-82,-68,-136,-82,-131,2,97,-99
29,-151,-29,-19,-92,-82,-165,-112,-180,61,104,-165
34,-190,-19,0,-87,-107,-204,-136,-224,78,129,-207
14,-117,29,48,-63,-97,-209,-136,-131,51,72,-124
0,-39,53,78,-29,-78,-234,-141,-39,19,19,-39
14,-29,43,82,-24,-82,-253,-175,-43,7,28,-36
14,-34,24,78,-24,-78,-283,-204,-48,10,31,-41
-24,-9,24,87,-9,-43,-253,-195,15,16,-19,3
-4,24,43,122,48,58,-151,-136,28,-10,-16,26
53,68,53,141,112,151,-19,-78,15,-60,19,41
82,102,34,126,136,234,117,-29,20,-92,31,61
126,112,14,107,180,361,307,4,-14,-119,70,49
112,131,4,117,253,541,585,78,19,-121,46,75
53,170,-4,136,322,727,883,170,117,-111,-32,143
117,219,-48,102,307,858,1156,234,102,-168,7,160
219,283,-58,87,297,995,1434,361,64,-251,77,173
209,361,-39,87,322,1132,1717,497,152,-285,28,256
151,434,-43,53,297,1229,1922,561,283,-292,-66,358
170,527,-34,24,263,1298,2093,605,357,-348,-93,442
239,595,0,34,253,1381,2293,678,356,-417,-58,475
219,566,9,14,195,1342,2327,692,347,-392,-64,456
122,424,-48,-58,29,1063,1981,575,302,-273,-90,363
92,278,-122,-126,-165,629,1376,385,186,-185,-47,232
136,234,-131,-195,-326,229,819,273,98,-185,19,166
78,180,-117,-278,-488,-117,317,219,102,-129,-12,141
4,68,-117,-341,-605,-380,-112,141,64,-36,-30,66
34,-19,-126,-370,-649,-492,-336,39,-53,-7,43,-36
43,-63,-136,-390,-644,-492,-375,-39,-106,10,74,-84
-14,-78,-156,-434,-649,-492,-385,-87,-64,46,25,-71
24,-68,-175,-444,-624,-468,-385,-117,-92,22,58,-80
112,-9,-180,-385,-551,-395,-336,-117,-121,-51,116,-65
107,4,-165,-322,-463,-322,-297,-117,-103,-55,105,-49
68,-24,-195,-302,-409,-287,-283,-107,-92,-22,80,-58
53,-39,-214,-287,-346,-234,-248,-97,-92,-7,72,-65
19,-58,-204,-234,-283,-180,-200,-63,-77,19,48,-67
19,-39,-180,-195,-248,-170,-185,-63,-58,10,38,-48
78,-4,-151,-161,-224,-165,-175,-68,-82,-37,80,-43
92,-14,-112,-112,-190,-141,-146,-48,-106,-39,99,-60
107,-4,-107,-97,-165,-117,-131,-39,-111,-51,109,-57
97,14,-92,-82,-161,-107,-122,-24,-83,-55,90,-34
82,-4,-82,-68,-136,-92,-112,-24,-86,-39,84,-45
87,4,-82,-58,-136,-87,-122,-24,-83,-45,85,-39
92,29,-92,-58,-122,-87,-117,-24,-63,-60,77,-17
73,19,-87,-53,-117,-92,-131,-34,-54,-46,63,-17
39,-19,-73,-43,-107,-97,-131,-39,-58,-10,48,-38
-9,9,-73,-43,-102,-92,-131,-39,18,0,-13,13
4,48,-92,-48,-107,-82,-136,-43,44,-26,-20,46
14,29,-102,-63,-126,-92,-151,-58,15,-21,0,22
0,48,-102,-68,-131,-92,-156,-63,48,-24,-24,48
19,87,-97,-68,-126,-82,-156,-63,68,-53,-24,77
19,63,-97,-53,-117,-68,-165,-78,44,-41,-12,53
9,14,-97,-43,-117,-68,-165,-78,5,-11,2,9
4,19,-92,-43,-117,-68,-165,-78,15,-11,-5,17
58,48,-92,-48,-122,-63,-165,-78,-10,-53,34,19
63,68,-102,-58,-131,-73,-170,-97,5,-65,29,36
63,78,-92,-48,-126,-73,-170,-87,15,-70,24,46
53,87,-87,-39,-107,-58,-161,-82,34,-70,9,60
53,92,-87,-29,-107,-48,-165,-82,39,-72,7,65
53,63,-92,-24,-87,-34,-156,-78,10,-58,21,36
43,73,-78,-9,-78,-19,-161,-68,30,-58,6,51
29,63,-68,-4,-73,-14,-161,-63,34,-46,-2,48
-29,14,-63,0,-73,-14,-170,-68,43,7,-36,28
-14,-4,-63,0,-73,-14,-165,-68,10,9,-12,3
34,53,-53,9,-53,0,-156,-53,19,-43,7,36
78,92,-43,14,-43,0,-136,-53,14,-85,32,53
92,112,-58,14,-58,-9,-141,-68,20,-102,36,66
73,63,-68,-4,-63,-19,-161,-82,-10,-68,41,26
53,53,-68,-4,-73,-4,-161,-68,0,-53,26,26
63,92,-58,14,-58,0,-161,-63,29,-77,17,60
82,68,-58,14,-48,4,-161,-58,-14,-75,48,27
87,78,-63,9,-48,-9,-161,-63,-9,-82,48,34
107,97,-53,4,-48,0,-151,-63,-10,-102,58,43
112,82,-58,-4,-53,9,-156,-68,-30,-97,71,26
73,92,-73,-24,-78,-19,-165,-73,19,-82,27,55
48,102,-78,-14,-68,-9,-165,-78,54,-75,-3,78
68,82,-73,-19,-58,4,-156,-68,14,-75,27,48
78,39,-92,-24,-63,-9,-156,-68,-39,-58,58,0
87,82,-82,-29,-78,-34,-161,-87,-5,-84,46,38
102,58,-97,-43,-97,-63,-180,-102,-44,-80,73,7
82,39,-112,-53,-102,-68,-185,-97,-43,-60,62,-2
43,34,-102,-63,-97,-68,-185,-92,-9,-38,26,12
14,43,-107,-68,-102,-68,-180,-92,29,-28,-7,36
78,34,-92,-53,-78,-58,-161,-78,-44,-56,61,-5
92,78,-82,-43,-73,-58,-146,-73,-14,-85,53,32
112,97,-78,-39,-73,-58,-161,-68,-15,-104,63,41
112,78,-82,-34,-73,-58,-161,-63,-34,-95,73,22
78,53,-73,-24,-58,-53,-151,-63,-25,-65,51,14
53,68,-53,-24,-58,-53,-146,-53,15,-60,19,41
48,58,-43,-19,-63,-53,-141,-53,10,-53,19,34
48,48,-48,-14,-58,-73,-151,-63,0,-48,24,24
53,48,-58,-24,-53,-73,-161,-63,-5,-50,29,21
43,39,-39,-9,-43,-73,-131,-58,-4,-41,23,17
48,19,-39,-9,-24,-43,-117,-43,-29,-33,38,-5
53,43,-48,-9,-19,-34,-112,-39,-10,-48,31,16
78,82,-53,-4,-19,-53,-122,-48,4,-80,37,43
87,68,-58,-4,-24,-58,-122,-58,-19,-77,53,24
78,53,-78,-29,-34,-82,-131,-73,-25,-65,51,14
87,39,-82,-29,-39,-68,-131,-73,-48,-63,67,-4
97,43,-73,-24,-48,-58,-122,-63,-54,-70,75,-5
102,87,-78,-19,-34,-58,-122,-63,-15,-94,58,36
97,73,-78,-9,-34,-58,-126,-68,-24,-85,60,24
68,53,-73,4,-24,-43,-126,-63,-15,-60,41,19
53,78,-58,14,-19,-34,-117,-53,25,-65,14,51
73,73,-53,14,-4,-29,-112,-53,0,-73,36,36
92,58,-34,29,4,-9,-107,-53,-34,-75,63,12
87,53,-29,29,19,4,-82,-43,-34,-70,60,9
63,43,-34,19,19,9,-82,-53,-20,-53,41,11
29,43,-48,14,14,0,-92,-73,14,-36,7,28
19,43,-39,19,14,4,-92,-68,24,-31,-2,33
14,29,-24,39,43,19,-78,-53,15,-21,0,22
34,39,-9,63,48,39,-82,-48,5,-36,14,22
63,68,-4,73,68,43,-68,-48,5,-65,29,36
92,117,0,87,78,53,-58,-48,25,-104,33,71
112,126,0,87,92,73,-43,-48,14,-119,49,70
112,136,-24,58,68,53,-63,-68,24,-124,44,80
63,107,-39,58,48,34,-73,-78,44,-85,9,75
53,117,-19,73,82,53,-53,-58,64,-85,-5,90
107,146,-9,78,87,58,-39,-48,39,-126,34,92
136,102,-39,78,53,68,-39,-63,-34,-119,85,34
107,78,-29,82,82,87,-34,-63,-29,-92,68,24
107,73,-29,92,107,107,-14,-53,-34,-90,70,19
107,63,-34,92,117,107,-14,-53,-44,-85,75,9
82,48,-39,97,112,117,-24,-53,-34,-65,58,7
97,78,-34,107,117,131,-19,-63,-19,-87,58,29
97,73,-39,112,122,131,-19,-63,-24,-85,60,24
87,43,-34,117,131,131,-14,-68,-44,-65,65,0
92,34,-24,126,161,151,4,-63,-58,-63,75,-12
102,63,-14,141,170,170,24,-53,-39,-82,70,12
87,19,-4,151,185,190,29,-48,-68,-53,77,-24
78,4,-4,151,190,204,34,-43,-74,-41,76,-35
92,4,-4,151,185,219,39,-34,-88,-48,90,-42
92,29,-4,151,200,229,48,-34,-63,-60,77,-17
97,53,-4,146,204,229,58,-34,-44,-75,70,4
107,82,-14,141,214,229,73,-34,-25,-94,66,28
146,117,-14,146,219,248,63,-39,-29,-131,87,44
151,131,-14,146,209,248,58,-48,-20,-141,85,55
141,117,-29,141,204,229,43,-73,-24,-129,82,46
141,97,-29,141,204,229,39,-82,-44,-119,92,26
126,63,-9,161,234,263,63,-78,-63,-94,94,0
122,82,0,170,244,278,68,-73,-40,-102,81,21
122,82,9,175,263,297,82,-63,-40,-102,81,21
131,97,39,185,283,317,117,-43,-34,-114,82,31
112,97,48,185,287,322,117,-53,-15,-104,63,41
92,92,19,185,287,322,112,-53,0,-92,46,46
68,78,0,180,278,307,107,-63,10,-73,29,44
34,68,-9,180,278,322,107,-53,34,-51,0,51
82,82,-4,170,287,336,117,-53,0,-82,41,41
117,102,-19,165,287,326,126,-48,-15,-109,66,43
136,126,-24,165,283,322,126,-48,-10,-131,73,58
117,141,-39,165,273,322,122,-53,24,-129,46,82
63,107,-43,151,283,322,126,-53,44,-85,9,75
68,87,-48,146,268,317,131,-48,19,-77,24,53
92,102,-63,136,253,317,136,-43,10,-97,41,56
63,107,-58,126,253,317,141,-34,44,-85,9,75
63,73,-48,136,258,322,156,-34,10,-68,26,41
68,58,-53,126,263,317,156,-34,-10,-63,39,24
78,73,-58,126,248,307,146,-19,-5,-75,41,34
78,68,-63,117,239,302,141,-19,-10,-73,44,29
97,68,-63,112,224,302,141,-19,-29,-82,63,19
112,87,-68,92,209,283,141,-24,-25,-99,68,31
126,107,-68,102,214,278,146,-24,-19,-116,72,44
126,102,-58,107,229,268,151,-19,-24,-114,75,39
107,97,-43,112,214,273,136,-9,-10,-102,58,43
126,107,-39,117,195,253,126,-24,-19,-116,72,44
92,102,-29,112,190,244,151,-4,10,-97,41,56
39,68,-24,117,190,234,156,4,29,-53,5,48
9,48,-48,87,165,204,131,-4,39,-28,-15,43
34,73,-73,73,136,195,107,-19,39,-53,-2,56
58,117,-63,53,126,175,92,-29,59,-87,0,88
53,151,-58,78,122,165,82,-39,98,-102,-22,124
24,112,-58,53,97,141,73,-34,88,-68,-32,100
39,78,-78,39,78,131,68,-34,39,-58,0,58
0,39,-82,24,63,112,63,-34,39,-19,-19,39
-29,14,-87,14,43,97,53,-34,43,7,-36,28
-43,0,-87,4,29,78,34,-39,43,21,-43,21
-48,-4,-92,-19,4,48,19,-48,44,26,-46,20
-73,-14,-97,-24,-14,24,4,-58,59,43,-66,22
-78,-24,-97,-34,-19,29,-9,-58,54,51,-66,15
-97,-43,-82,-19,-29,24,-19,-53,54,70,-75,5
-102,-4,-82,-9,-29,19,-34,-58,98,53,-100,47
-97,-39,-97,-29,-34,4,-43,-73,58,68,-77,9
-92,-29,-87,-34,-43,0,-24,-68,63,60,-77,17
-39,34,-73,-19,-29,19,-9,-48,73,2,-56,53
-14,73,-53,-9,-19,19,-9,-34,87,-29,-50,80
0,112,-39,9,-14,14,-9,-24,112,-56,-56,112
24,151,-48,0,-14,9,-29,-19,127,-87,-51,139
19,117,-43,4,-19,9,-34,-29,98,-68,-39,107
9,112,-43,4,-39,0,-39,-24,103,-60,-47,107
34,122,-39,4,-39,0,-39,-14,88,-78,-27,105
43,126,-34,14,-29,0,-19,-9,83,-84,-20,104
-9,102,-48,14,-34,-19,-29,-14,111,-46,-60,106
-53,92,-63,-14,-68,-48,-53,-39,145,-19,-99,118
-29,97,-68,-43,-82,-48,-82,-48,126,-34,-77,111
-43,63,-73,-58,-92,-24,-82,-48,106,-10,-74,84
-78,19,-73,-53,-102,-34,-82,-48,97,29,-87,58
-73,24,-87,-48,-102,-39,-87,-48,97,24,-85,60
-34,29,-97,-43,-102,-39,-87,-48,63,2,-48,46
-14,29,-82,-24,-102,-39,-87,-58,43,-7,-28,36
-68,-9,-87,-29,-107,-43,-92,-58,59,38,-63,25
-112,-39,-82,-39,-112,-48,-92,-53,73,75,-92,17
-102,-63,-97,-53,-112,-63,-97,-58,39,82,-70,-12
-92,-87,-112,-73,-112,-78,-107,-68,5,89,-48,-41
-141,-68,-48,-19,-63,-19,-68,-19,73,104,-107,2
-146,-29,-29,0,-48,0,-48,-9,117,87,-131,44
-107,-39,-48,-9,-58,-9,-58,-29,68,73,-87,14
-78,-39,-58,-19,-68,-19,-68,-39,39,58,-58,0
-48,-39,-68,-29,-78,-29,-78,-48,9,43,-28,-15
-19,-39,-78,-39,-87,-39,-87,-58,-20,29,0,-29
0,-19,-63,-19,-78,-24,-82,-39,-19,9,9,-19
9,0,-48,-9,-68,-19,-78,-29,-9,-4,9,-4
19,19,-34,0,-58,-14,-73,-19,0,-19,9,9
29,39,-19,9,-48,-9,-68,-9,10,-34,9,24
14,24,-9,0,-48,-19,-68,-14,10,-19,2,17
9,19,-9,0,-48,-19,-68,-19,10,-14,0,14
4,14,-9,0,-48,-19,-68,-24,10,-9,-3,12
0,9,-9,0,-48,-19,-68,-29,9,-4,-4,9
-9,14,9,9,-43,-9,-68,-24,23,-2,-16,18
-9,19,19,19,-39,-9,-68,-19,28,-5,-18,23
-9,24,29,29,-34,-9,-68,-14,33,-7,-21,28
-9,29,39,39,-29,-9,-68,-9,38,-10,-23,33
-19,19,29,29,-39,-19,-73,-14,38,0,-28,28
-29,9,19,29,-39,-19,-78,-19,38,10,-33,23
-39,0,9,29,-39,-19,-82,-24,39,19,-39,19
-48,-9,0,29,-39,-19,-87,-29,39,28,-43,15
-63,-19,-14,14,-43,-24,-97,-34,44,41,-53,12
-68,-29,-19,9,-48,-29,-97,-39,39,48,-53,5
-73,-39,-24,4,-53,-34,-97,-43,34,56,-53,-2
-78,-48,-29,0,-58,-39,-97,-48,30,63,-54,-9
-68,-39,-24,0,-58,-48,-97,-48,29,53,-48,-5
-58,-29,-19,0,-58,-48,-97,-48,29,43,-43,0
-48,-19,-14,0,-58,-48,-97,-48,29,33,-38,5
-39,-9,-9,0,-58,-48,-97,-48,30,24,-34,10
-34,-19,9,14,-48,-48,-87,-48,15,26,-24,-2
-29,-29,19,19,-48,-48,-87,-48,0,29,-14,-14
-24,-39,29,24,-48,-48,-87,-48,-15,31,-4,-27
-19,-48,39,29,-48,-48,-87,-48,-29,33,5,-38
-39,-73,39,39,-43,-34,-73,-39,-34,56,-2,-53
-48,-87,39,39,-39,-29,-68,-29,-39,67,-4,-63
-58,-102,39,39,-34,-24,-63,-19,-44,80,-7,-73
-68,-117,39,39,-29,-19,-58,-9,-49,92,-9,-83
-82,-112,24,19,-48,-39,-78,-24,-30,97,-26,-71
-87,-107,9,9,-58,-48,-87,-39,-20,97,-33,-63
-92,-102,-4,0,-68,-58,-97,-53,-10,97,-41,-56
-97,-97,-19,-9,-78,-68,-107,-68,0,97,-48,-48
-68,-82,-14,0,-63,-63,-92,-53,-14,75,-27,-48
-48,-78,-9,9,-58,-58,-87,-48,-30,63,-9,-54
-29,-73,-4,19,-53,-53,-82,-43,-44,51,7,-58
-9,-68,0,29,-48,-48,-78,-39,-59,38,25,-63
-19,-87,9,19,-58,-39,-78,-43,-68,53,24,-77
-19,-97,9,19,-58,-39,-78,-48,-78,58,29,-87
-19,-107,9,19,-58,-39,-78,-53,-88,63,34,-97
-19,-117,9,19,-58,-39,-78,-58,-98,68,39,-107
-34,-117,19,24,-53,-34,-73,-43,-83,75,24,-100
-48,-117,19,29,-48,-29,-68,-39,-69,82,10,-93
-63,-117,19,34,-43,-24,-63,-34,-54,90,-4,-85
-78,-117,19,39,-39,-19,-58,-29,-39,97,-19,-78
-58,-102,9,29,-48,-24,-68,-29,-44,80,-7,-73
-48,-97,9,29,-48,-29,-68,-29,-49,72,0,-73
-39,-92,9,29,-48,-34,-68,-29,-53,65,7,-72
-29,-87,9,29,-48,-39,-68,-29,-58,58,14,-72
-19,-92,4,24,-53,-43,-73,-34,-73,55,27,-82
-19,-97,0,19,-58,-48,-78,-39,-78,58,29,-87
-19,-102,-4,14,-63,-53,-82,-43,-83,60,32,-92
-19,-107,-9,9,-68,-58,-87,-48,-88,63,34,-97
-29,-102,-14,0,-78,-58,-92,-58,-73,65,22,-87
-29,-97,-19,0,-78,-58,-97,-58,-68,63,19,-82
-29,-92,-24,0,-78,-58,-102,-58,-63,60,17,-77
-29,-87,-29,0,-78,-58,-107,-58,-58,58,14,-72
-43,-102,-14,4,-63,-43,-97,-43,-59,72,8,-80
-48,-117,-9,9,-58,-39,-87,-39,-69,82,10,-93
-53,-131,-4,14,-53,-34,-78,-34,-78,92,12,-104
-58,-146,0,19,-48,-29,-68,-29,-88,102,15,-117
-48,-136,-14,9,-68,-39,-87,-39,-88,92,20,-112
-48,-136,-19,0,-78,-48,-97,-48,-88,92,20,-112
-48,-136,-24,-9,-87,-58,-107,-58,-88,92,20,-112
-48,-136,-29,-19,-97,-68,-117,-68,-88,92,20,-112
-39,-112,-19,-14,-82,-53,-102,-53,-73,75,17,-92
-29,-87,-9,-9,-78,-48,-97,-48,-58,58,14,-72
-19,-63,0,-4,-73,-43,-92,-43,-44,41,12,-53
-9,-39,9,0,-68,-39,-87,-39,-30,24,10,-34
-4,-39,0,9,-58,-29,-87,-48,-35,21,15,-37
0,-39,0,9,-58,-29,-87,-48,-39,19,19,-39
4,-39,0,9,-58,-29,-87,-48,-43,17,23,-41
9,-39,0,9,-58,-29,-87,-48,-48,15,28,-43
-4,-48,9,19,-58,-29,-87,-58,-44,26,20,-46
-19,-58,9,19,-58,-29,-87,-58,-39,38,10,-48
-34,-68,9,19,-58,-29,-87,-58,-34,51,0,-51
-48,-78,9,19,-58,-29,-87,-58,-30,63,-9,-54
-58,-92,-4,9,-73,-43,-102,-68,-34,75,-12,-63
-68,-97,-19,0,-78,-48,-107,-68,-29,82,-19,-63
-78,-102,-34,-9,-82,-53,-112,-68,-24,90,-27,-63
-87,-107,-48,-19,-87,-58,-117,-68,-20,97,-33,-63
-78,-107,-9,19,-48,-39,-87,-48,-29,92,-24,-68
-136,-97,19,39,-39,-39,-87,-48,39,116,-87,-29
-165,-78,29,48,-29,-39,-117,-58,87,121,-126,4
-117,-87,19,48,-48,-78,-175,-117,30,102,-73,-28
-78,-185,19,48,-48,-97,-244,-156,-107,131,14,-146
-165,-244,68,107,9,-58,-244,-146,-79,204,-43,-161
-204,-204,97,146,39,-29,-244,-136,0,204,-102,-102
-185,-195,68,126,19,-39,-263,-156,-10,190,-87,-102
-185,-175,48,117,29,0,-214,-156,10,180,-97,-82
-126,-107,68,136,87,107,-78,-97,19,116,-72,-44
-9,-29,87,146,136,214,87,-29,-20,19,5,-24
0,9,87,146,175,361,283,29,9,-4,-4,9
-58,19,58,156,244,517,527,87,77,19,-67,48
-39,19,19,165,312,692,790,136,58,10,-48,38
48,78,19,175,370,858,1054,195,30,-63,9,54
97,204,9,165,409,985,1307,283,107,-150,-5,155
39,263,-29,136,419,1073,1522,341,224,-151,-92,243
9,244,-29,136,458,1180,1717,390,235,-126,-113,239
48,273,19,195,556,1317,1912,478,225,-160,-88,249
48,361,58,224,595,1415,2088,546,313,-204,-132,337
9,351,78,244,585,1424,2156,566,342,-180,-166,346
29,273,97,253,527,1239,1903,488,244,-151,-107,258
48,175,107,244,409,839,1327,322,127,-111,-39,151
-39,48,107,234,292,429,732,165,87,-4,-63,67
-185,-87,126,253,234,126,234,97,98,136,-141,5
-224,-156,156,263,185,-107,-175,48,68,190,-146,-44
-117,-126,185,292,185,-204,-390,0,-9,121,-54,-67
-39,-87,214,331,224,-156,-400,-48,-48,63,4,-67
-78,-136,214,341,234,-117,-400,-126,-58,107,-10,-97
-136,-204,195,361,214,-136,-439,-195,-68,170,-34,-136
-195,-224,204,390,244,-117,-429,-204,-29,209,-83,-126
-204,-185,224,429,292,-78,-400,-214,19,194,-111,-83
-126,-117,263,507,370,-39,-370,-214,9,121,-67,-54
-58,-126,341,614,478,29,-312,-156,-68,92,5,-97
-87,-244,380,673,527,78,-263,-117,-157,165,35,-200
-165,-273,380,702,536,87,-244,-136,-108,219,-28,-190
-117,-185,390,741,527,78,-234,-136,-68,151,-24,-126
-68,-146,439,790,517,78,-204,-97,-78,107,5,-112
-107,-126,497,868,517,78,-195,-68,-19,116,-44,-72
-68,-29,507,907,478,48,-204,-78,39,48,-53,5
-58,-9,507,917,429,9,-224,-97,49,33,-53,20
-185,-78,556,976,429,9,-214,-78,107,131,-146,14
-214,-107,595,1024,429,19,-214,-68,107,160,-160,0
-126,-97,605,1015,419,19,-204,-58,29,111,-77,-34
-78,-87,585,966,380,29,-175,-39,-9,82,-34,-48
-78,-78,536,849,302,9,-175,-48,0,78,-39,-39
-107,-87,488,741,224,-19,-185,-58,20,97,-63,-33
-117,-97,458,673,195,-29,-175,-78,20,107,-68,-38
-97,-68,429,614,175,-19,-165,-68,29,82,-63,-19
-126,-29,409,546,156,-9,-156,-48,97,77,-111,34
-136,-39,351,439,107,-9,-146,-39,97,87,-116,29
-126,-87,283,331,58,-19,-136,-48,39,106,-82,-24
-107,-146,244,273,29,-19,-117,-39,-39,126,-34,-92
-58,-97,224,224,19,9,-87,-9,-39,77,-9,-68
-39,-19,175,175,9,9,-78,0,20,29,-29,0
-39,-39,136,141,-4,0,-92,-9,0,39,-19,-19
-39,-58,107,117,-19,-9,-97,-19,-19,48,-10,-38
-39,-78,78,92,-34,-19,-102,-29,-39,58,0,-58
-39,-97,48,68,-48,-29,-107,-39,-58,68,9,-77
-53,-112,19,39,-63,-43,-122,-53,-59,82,3,-85
-58,-126,0,19,-78,-48,-126,-58,-68,92,5,-97
-63,-141,-19,0,-92,-53,-131,-63,-78,102,7,-109
-68,-156,-39,-19,-107,-58,-136,-68,-88,112,10,-122
-53,-126,-29,-9,-92,-43,-122,-58,-73,89,10,-99
-48,-107,-29,-9,-87,-39,-117,-58,-59,77,5,-83
-43,-87,-29,-9,-82,-34,-112,-58,-44,65,0,-65
-39,-68,-29,-9,-78,-29,-107,-58,-29,53,-5,-48
4,-34,-9,9,-53,-4,-92,-39,-38,15,21,-36
39,0,0,19,-39,9,-78,-19,-39,-19,39,-19
73,34,9,29,-24,24,-63,0,-39,-53,56,-2
107,68,19,39,-9,39,-48,19,-39,-87,73,14
92,48,9,19,-24,19,-58,0,-44,-70,68,2
78,39,0,9,-39,9,-68,-9,-39,-58,58,0
63,29,-9,0,-53,0,-78,-19,-34,-46,48,-2
48,19,-19,-9,-68,-9,-87,-29,-29,-33,38,-5
19,-9,-34,-24,-73,-19,-97,-39,-28,-5,23,-18
0,-29,-39,-29,-78,-19,-97,-39,-29,14,14,-29
-19,-48,-43,-34,-82,-19,-97,-39,-29,33,5,-38
-39,-68,-48,-39,-87,-19,-97,-39,-29,53,-5,-48
-9,-48,-53,-48,-97,-9,-87,-29,-39,28,15,-43
9,-29,-58,-48,-97,-9,-87,-29,-38,10,23,-33
29,-9,-63,-48,-97,-9,-87,-29,-38,-10,33,-23
48,9,-68,-48,-97,-9,-87,-29,-39,-28,43,-15
39,-9,-78,-63,-107,-14,-102,-39,-48,-15,43,-28
29,-29,-78,-68,-107,-19,-107,-48,-58,0,43,-43
19,-48,-78,-73,-107,-24,-112,-58,-67,14,43,-57
9,-68,-78,-78,-107,-29,-117,-68,-77,29,43,-72
0,-53,-68,-78,-117,-29,-107,-63,-53,26,26,-53
0,-48,-68,-78,-117,-29,-107,-58,-48,24,24,-48
0,-43,-68,-78,-117,-29,-107,-53,-43,21,21,-43
0,-39,-68,-78,-117,-29,-107,-48,-39,19,19,-39
19,-19,-73,-87,-112,-14,-92,-34,-38,0,28,-28
29,0,-78,-87,-107,-9,-87,-29,-29,-14,29,-14
39,19,-82,-87,-102,-4,-82,-24,-20,-29,29,0
48,39,-87,-87,-97,0,-78,-19,-9,-43,28,15
39,24,-97,-92,-102,-4,-87,-29,-15,-31,27,4
39,19,-107,-97,-107,-9,-87,-29,-20,-29,29,0
39,14,-117,-102,-112,-14,-87,-29,-25,-26,32,-5
39,9,-126,-107,-117,-19,-87,-29,-30,-24,34,-10
48,9,-126,-112,-117,-9,-82,-29,-39,-28,43,-15
48,9,-126,-117,-117,-9,-78,-29,-39,-28,43,-15
48,9,-126,-122,-117,-9,-73,-29,-39,-28,43,-15
48,9,-126,-126,-117,-9,-68,-29,-39,-28,43,-15
34,-4,-141,-141,-126,-24,-73,-34,-38,-15,36,-21
19,-19,-146,-146,-136,-29,-78,-39,-38,0,28,-28
4,-34,-151,-151,-146,-34,-82,-43,-38,15,21,-36
-9,-48,-156,-156,-156,-39,-87,-48,-39,28,15,-43
-4,-29,-161,-161,-165,-48,-78,-58,-25,16,10,-27
0,-19,-165,-165,-165,-48,-78,-58,-19,9,9,-19
4,-9,-170,-170,-165,-48,-78,-58,-13,2,8,-11
9,0,-175,-175,-165,-48,-78,-58,-9,-4,9,-4
0,-19,-175,-180,-175,-39,-68,-58,-19,9,9,-19
0,-29,-175,-185,-175,-39,-68,-58,-29,14,14,-29
0,-39,-175,-190,-175,-39,-68,-58,-39,19,19,-39
0,-48,-175,-195,-175,-39,-68,-58,-48,24,24,-48
4,-39,-175,-195,-175,-34,-53,-68,-43,17,23,-41
9,-39,-175,-195,-175,-29,-48,-68,-48,15,28,-43
14,-39,-175,-195,-175,-24,-43,-68,-53,12,33,-46
19,-39,-175,-195,-175,-19,-39,-68,-58,10,38,-48
39,-24,-175,-195,-165,-9,-19,-53,-63,-7,51,-43
58,-9,-175,-195,-165,0,-9,-48,-67,-24,62,-38
78,4,-175,-195,-165,9,0,-43,-74,-41,76,-35
97,19,-175,-195,-165,19,9,-39,-78,-58,87,-29
73,0,-190,-200,-165,24,14,-48,-73,-36,73,-36
58,-9,-195,-204,-165,29,19,-48,-67,-24,62,-38
43,-19,-200,-209,-165,34,24,-48,-62,-12,52,-40
29,-29,-204,-214,-165,39,29,-48,-58,0,43,-43
48,-19,-200,-224,-161,58,43,-39,-67,-14,57,-43
58,-9,-195,-224,-156,68,58,-29,-67,-24,62,-38
68,0,-190,-224,-151,78,73,-19,-68,-34,68,-34
78,9,-185,-224,-146,87,87,-9,-69,-43,73,-30
87,24,-185,-234,-156,97,92,-24,-63,-55,75,-19
87,29,-185,-234,-156,97,97,-29,-58,-58,72,-14
87,34,-185,-234,-156,97,102,-34,-53,-60,70,-9
87,39,-185,-234,-156,97,107,-39,-48,-63,67,-4
112,58,-185,-248,-165,107,112,-34,-54,-85,83,2
126,68,-185,-253,-165,107,117,-29,-58,-97,92,5
141,78,-185,-258,-165,107,122,-24,-63,-109,102,7
156,87,-185,-263,-165,107,126,-19,-69,-121,112,9
141,97,-185,-263,-156,112,141,-14,-44,-119,92,26
136,97,-185,-263,-156,117,146,-9,-39,-116,87,29
131,97,-185,-263,-156,122,151,-4,-34,-114,82,31
126,97,-185,-263,-156,126,156,0,-29,-111,77,34
126,82,-175,-273,-156,131,170,4,-44,-104,85,19
126,78,-175,-273,-156,136,175,9,-48,-102,87,15
126,73,-175,-273,-156,141,180,14,-53,-99,89,10
126,68,-175,-273,-156,146,185,19,-58,-97,92,5
117,53,-185,-273,-156,156,195,29,-64,-85,90,-5
107,48,-185,-273,-156,156,195,29,-59,-77,83,-5
97,43,-185,-273,-156,156,195,29,-54,-70,75,-5
87,39,-185,-273,-156,156,195,29,-48,-63,67,-4
107,63,-185,-278,-165,146,200,43,-44,-85,75,9
117,78,-185,-283,-165,146,204,48,-39,-97,78,19
126,92,-185,-287,-165,146,209,53,-34,-109,80,29
136,107,-185,-292,-165,146,214,58,-29,-121,82,39
131,92,-200,-302,-175,131,204,43,-39,-111,85,26
126,87,-204,-302,-185,126,195,39,-39,-106,82,24
122,82,-209,-302,-195,122,185,34,-40,-102,81,21
117,78,-214,-302,-204,117,175,29,-39,-97,78,19
107,87,-204,-297,-200,112,170,34,-20,-97,63,33
97,97,-195,-292,-195,107,165,39,0,-97,48,48
87,107,-185,-287,-190,102,161,43,20,-97,33,63
78,117,-175,-283,-185,97,156,48,39,-97,19,78
58,82,-165,-273,-185,87,146,39,24,-70,17,53
48,58,-156,-263,-185,78,136,39,10,-53,19,34
39,34,-146,-253,-185,68,126,39,-5,-36,22,14
29,9,-136,-244,-185,58,117,39,-20,-19,24,-5
19,0,-136,-234,-175,48,97,24,-19,-9,19,-9
19,-9,-136,-234,-175,39,87,19,-28,-5,23,-18
19,-19,-136,-234,-175,29,78,14,-38,0,28,-28
19,-29,-136,-234,-175,19,68,9,-48,5,33,-38
29,-14,-131,-219,-156,29,58,14,-43,-7,36,-28
29,0,-126,-204,-146,29,58,19,-29,-14,29,-14
29,14,-122,-190,-136,29,58,24,-15,-21,22,0
29,29,-117,-175,-126,29,58,29,0,-29,14,14
29,39,-112,-165,-117,14,43,24,10,-34,9,24
29,39,-107,-156,-117,9,29,19,10,-34,9,24
29,39,-102,-146,-117,4,14,14,10,-34,9,24
29,39,-97,-136,-117,0,0,9,10,-34,9,24
4,29,-87,-122,-102,-9,-14,4,25,-16,-10,27
-9,19,-78,-107,-97,-9,-19,0,28,-5,-18,23
-24,9,-68,-92,-92,-9,-24,-4,33,7,-28,21
-39,0,-58,-78,-87,-9,-29,-9,39,19,-39,19
-19,29,-48,-48,-68,9,-9,19,48,-5,-33,38
-29,48,-29,-39,-58,9,-9,19,77,-9,-53,62
29,29,-29,-48,-78,-29,-48,-9,0,-29,14,14
58,0,-29,-39,-78,-29,-58,-9,-58,-29,58,-29
34,0,-29,-39,-87,-29,-63,-14,-34,-17,34,-17
9,0,-29,-39,-87,-29,-68,-19,-9,-4,9,-4
-14,0,-29,-39,-87,-29,-73,-24,14,7,-14,7
-39,0,-29,-39,-87,-29,-78,-29,39,19,-39,19
-48,-9,-14,-19,-78,-19,-68,-19,39,28,-43,15
-58,-9,-9,-9,-68,-19,-68,-19,49,33,-53,20
-68,-9,-4,0,-58,-19,-68,-19,59,38,-63,25
-78,-9,0,9,-48,-19,-68,-19,69,43,-73,30
-87,-9,9,9,-58,-29,-73,-29,78,48,-82,34
-87,-9,9,9,-58,-29,-78,-29,78,48,-82,34
-87,-9,9,9,-58,-29,-82,-29,78,48,-82,34
-87,-9,9,9,-58,-29,-87,-29,78,48,-82,34
-92,-24,19,19,-48,-24,-82,-19,68,58,-80,22
-97,-29,19,19,-48,-19,-78,-19,68,63,-82,19
-102,-34,19,19,-48,-14,-73,-19,68,68,-85,17
-107,-39,19,19,-48,-9,-68,-19,68,73,-87,14
-122,-58,0,-9,-73,-24,-82,-34,64,90,-93,3
-126,-68,-19,-29,-87,-39,-97,-48,58,97,-92,-5
-131,-78,-39,-48,-102,-53,-112,-63,53,104,-92,-12
-136,-87,-58,-68,-117,-68,-126,-78,49,111,-92,-19
-146,-78,-58,-63,-107,-58,-126,-68,68,112,-107,-5
-146,-78,-58,-58,-107,-58,-126,-68,68,112,-107,-5
-146,-78,-58,-53,-107,-58,-126,-68,68,112,-107,-5
-146,-78,-58,-48,-107,-58,-126,-68,68,112,-107,-5
-131,-73,-58,-39,-102,-48,-122,-63,58,102,-94,-7
-117,-68,-58,-39,-97,-48,-117,-58,49,92,-83,-9
-102,-63,-58,-39,-92,-48,-112,-53,39,82,-70,-12
-87,-58,-58,-39,-87,-48,-107,-48,29,72,-58,-14
-87,-68,-43,-24,-73,-43,-102,-39,19,77,-53,-24
-87,-78,-39,-19,-68,-39,-97,-39,9,82,-48,-34
-87,-87,-34,-14,-63,-34,-92,-39,0,87,-43,-43
-87,-97,-29,-9,-58,-29,-87,-39,-10,92,-38,-53
-92,-82,-24,-9,-63,-34,-97,-39,10,87,-51,-36
-97,-78,-19,-9,-68,-39,-97,-39,19,87,-58,-29
-102,-73,-14,-9,-73,-43,-97,-39,29,87,-65,-22
-107,-68,-9,-9,-78,-48,-97,-39,39,87,-73,-14
-117,-82,-24,-9,-78,-48,-97,-39,35,99,-76,-23
-117,-97,-29,-9,-78,-48,-97,-39,20,107,-68,-38
-117,-112,-34,-9,-78,-48,-97,-39,5,114,-61,-53
-117,-126,-39,-9,-78,-48,-97,-39,-9,121,-54,-67
-107,-117,-29,-19,-78,-58,-92,-39,-10,112,-48,-63
-107,-117,-29,-19,-78,-58,-87,-39,-10,112,-48,-63
-107,-117,-29,-19,-78,-58,-82,-39,-10,112,-48,-63
-107,-117,-29,-19,-78,-58,-78,-39,-10,112,-48,-63
-92,-107,-14,-4,-68,-53,-78,-34,-15,99,-38,-61
-87,-107,-9,0,-68,-48,-78,-29,-20,97,-33,-63
-82,-107,-4,4,-68,-43,-78,-24,-25,94,-28,-66
-78,-107,0,9,-68,-39,-78,-19,-29,92,-24,-68
-82,-122,9,0,-68,-39,-78,-29,-40,102,-21,-81
-87,-126,9,0,-68,-39,-78,-29,-39,106,-24,-82
-92,-131,9,0,-68,-39,-78,-29,-39,111,-26,-85
-97,-136,9,0,-68,-39,-78,-29,-39,116,-29,-87
-102,-117,14,14,-63,-29,-78,-29,-15,109,-43,-66
-107,-97,19,19,-58,-29,-78,-29,10,102,-58,-43
-112,-78,24,24,-53,-29,-78,-29,34,95,-73,-22
-117,-58,29,29,-48,-29,-78,-29,59,87,-88,0
-107,-68,29,24,-63,-34,-87,-39,39,87,-73,-14
-97,-68,29,19,-68,-39,-87,-39,29,82,-63,-19
-87,-68,29,14,-73,-43,-87,-39,19,77,-53,-24
-78,-68,29,9,-78,-48,-87,-39,10,73,-44,-29
-92,-78,14,0,-78,-48,-87,-39,14,85,-53,-32
-97,-87,9,0,-78,-48,-87,-39,10,92,-53,-38
-102,-97,4,0,-78,-48,-87,-39,5,99,-53,-46
-107,-107,0,0,-78,-48,-87,-39,0,107,-53,-53
-102,-102,0,9,-68,-48,-87,-39,0,102,-51,-51
-97,-97,0,9,-68,-48,-87,-39,0,97,-48,-48
-92,-92,0,9,-68,-48,-87,-39,0,92,-46,-46
-87,-87,0,9,-68,-48,-87,-39,0,87,-43,-43
-92,-97,19,19,-58,-29,-78,-29,-5,94,-43,-51
-97,-107,29,29,-48,-19,-68,-19,-10,102,-43,-58
-102,-117,39,39,-39,-9,-58,-9,-15,109,-43,-66
-107,-126,48,48,-29,0,-48,0,-19,116,-44,-72
-117,-122,34,39,-34,-4,-53,-4,-5,119,-56,-63
-117,-117,29,39,-39,-9,-58,-9,0,117,-58,-58
-117,-112,24,39,-43,-14,-63,-14,5,114,-61,-53
-117,-107,19,39,-48,-19,-68,-19,10,112,-63,-48
-122,-97,24,43,-34,-14,-63,-9,25,109,-73,-36
-126,-97,29,48,-29,-9,-58,-9,29,111,-77,-34
-131,-97,34,53,-24,-4,-53,-9,34,114,-82,-31
-136,-97,39,58,-19,0,-48,-9,39,116,-87,-29
-112,-87,48,58,-19,9,-58,-9,25,99,-68,-31
-97,-87,48,58,-19,9,-58,-9,10,92,-53,-38
-82,-87,48,58,-19,9,-58,-9,-5,84,-38,-46
-68,-87,48,58,-19,9,-58,-9,-19,77,-24,-53
-68,-97,34,48,-39,-9,-78,-19,-29,82,-19,-63
-68,-97,29,39,-48,-19,-87,-29,-29,82,-19,-63
-68,-97,24,29,-58,-29,-97,-39,-29,82,-19,-63
-68,-97,19,19,-68,-39,-107,-48,-29,82,-19,-63
0,-68,48,58,-29,-29,-87,-39,-68,34,34,-68
-68,-146,29,48,-48,-48,-117,-68,-78,107,5,-112
-78,-175,29,39,-58,-78,-175,-107,-97,126,9,-136
-29,-126,48,68,-48,-78,-214,-126,-97,77,34,-111
-39,-126,58,97,-29,-68,-244,-136,-87,82,24,-106
-117,-156,97,136,19,-39,-244,-136,-39,136,-39,-97
-224,-195,136,165,48,-19,-234,-136,29,209,-126,-83
-244,-185,97,146,39,-19,-244,-175,59,214,-151,-63
-146,-126,68,126,58,29,-195,-175,20,136,-83,-53
-68,-48,107,165,136,156,-39,-97,20,58,-44,-14
-58,-19,136,195,185,273,136,-19,39,38,-48,10
-58,-19,107,185,214,400,322,19,39,38,-48,10
-68,48,78,175,273,566,546,48,116,10,-92,82
-68,78,48,175,341,732,810,97,146,-5,-107,112
-68,58,58,185,400,907,1083,204,126,5,-97,92
-19,117,68,204,448,1054,1356,322,136,-49,-77,126
48,244,48,195,468,1161,1571,380,196,-146,-74,220
58,341,58,224,536,1278,1776,429,283,-199,-112,312
19,351,107,273,605,1395,1942,517,332,-185,-156,341
19,302,97,263,605,1434,2030,527,283,-160,-132,292
0,234,97,244,566,1376,2010,497,234,-117,-117,234
-29,185,146,263,497,1141,1708,429,214,-78,-121,199
-29,107,156,273,400,741,1151,292,136,-39,-82,121
-68,39,156,273,302,380,624,185,107,14,-87,73
-165,19,175,283,234,87,185,126,184,73,-174,101
-214,-9,175,283,156,-156,-224,48,205,111,-209,98
-175,-87,185,292,146,-244,-429,-39,88,131,-131,0
-117,-156,204,322,175,-195,-439,-87,-39,136,-39,-97
-156,-204,195,341,185,-165,-439,-126,-48,180,-54,-126
-263,-283,185,361,175,-165,-458,-165,-20,273,-121,-151
-273,-253,195,390,204,-146,-439,-195,20,263,-146,-116
-185,-156,214,429,253,-107,-409,-214,29,170,-107,-63
-156,-117,234,497,322,-87,-400,-224,39,136,-97,-39
-195,-165,273,575,380,-48,-380,-234,30,180,-112,-67
-195,-195,322,653,419,-19,-341,-214,0,195,-97,-97
-165,-156,370,732,458,19,-302,-185,9,160,-87,-73
-146,-87,419,780,468,39,-273,-136,59,116,-102,-14
-136,-58,448,810,439,19,-263,-117,78,97,-107,10
-156,-68,488,819,400,0,-263,-117,88,112,-122,10
-175,-68,517,849,361,-9,-263,-117,107,121,-141,19
-165,-58,517,868,331,-29,-263,-126,107,111,-136,24
-185,-126,527,888,312,-58,-273,-146,59,155,-122,-33
-253,-175,556,927,302,-58,-273,-146,78,214,-165,-48
-273,-146,575,936,292,-48,-263,-107,127,209,-200,-9
-244,-126,575,888,263,-29,-234,-78,118,185,-181,-4
-204,-97,556,810,214,-39,-214,-68,107,150,-155,5
-224,-78,507,722,175,-39,-214,-78,146,151,-185,34
-224,-78,488,653,165,-29,-204,-68,146,151,-185,34
-165,-78,448,595,146,-19,-165,-58,87,121,-126,4
-97,-68,380,468,78,-39,-175,-68,29,82,-63,-19
-87,-48,302,351,29,-48,-175,-78,39,67,-63,-4
-78,-19,283,292,29,-9,-136,-29,59,48,-68,20
-58,-58,253,244,9,-9,-126,0,0,58,-29,-29
-146,-156,175,156,-29,-39,-165,-39,-10,151,-68,-83
-224,-185,126,97,-48,-48,-165,-58,39,204,-131,-73
-185,-156,107,82,-58,-43,-156,-68,29,170,-107,-63
-156,-136,87,68,-58,-39,-146,-68,20,146,-88,-58
-126,-117,68,53,-58,-34,-136,-68,9,121,-67,-54
-97,-97,48,39,-58,-29,-126,-68,0,97,-48,-48
-73,-82,48,39,-53,-14,-112,-43,-9,77,-32,-45
-48,-68,48,39,-48,0,-97,-19,-20,58,-14,-44
-24,-53,48,39,-43,14,-82,4,-29,38,2,-41
0,-39,48,39,-39,29,-68,29,-39,19,19,-39
-19,-58,34,19,-58,19,-73,14,-39,38,10,-48
-29,-68,19,9,-68,9,-78,0,-39,48,5,-53
-39,-78,4,0,-78,0,-82,-14,-39,58,0,-58
-48,-87,-9,-9,-87,-9,-87,-29,-39,67,-4,-63
-68,-107,-14,-29,-102,-24,-97,-43,-39,87,-14,-73
-87,-117,-19,-39,-107,-29,-107,-48,-30,102,-28,-73
-107,-126,-24,-48,-112,-34,-117,-53,-19,116,-44,-72
-126,-136,-29,-58,-117,-39,-126,-58,-10,131,-58,-73
-102,-112,-29,-43,-102,-29,-122,-53,-10,107,-46,-61
-87,-97,-29,-39,-97,-19,-117,-48,-10,92,-38,-53
-73,-82,-29,-34,-92,-9,-112,-43,-9,77,-32,-45
-58,-68,-29,-29,-87,0,-107,-39,-10,63,-24,-39
-68,-87,-24,-24,-82,4,-92,-29,-19,77,-24,-53
-78,-107,-19,-19,-78,9,-87,-19,-29,92,-24,-68
-87,-126,-14,-14,-73,14,-82,-9,-39,106,-24,-82
-97,-146,-9,-9,-68,19,-78,0,-49,121,-24,-97
-82,-117,-29,-24,-73,9,-92,-9,-35,99,-23,-76
-78,-97,-39,-29,-78,9,-97,-19,-19,87,-29,-58
-73,-78,-48,-34,-82,9,-102,-29,-5,75,-34,-41
-68,-58,-58,-39,-87,9,-107,-39,10,63,-39,-24
-39,-39,-43,-29,-82,19,-97,-24,0,39,-19,-19
-19,-29,-39,-29,-78,29,-87,-19,-10,24,-4,-19
0,-19,-34,-29,-73,39,-78,-14,-19,9,9,-19
19,-9,-29,-29,-68,48,-68,-9,-28,-5,23,-18
9,-19,-29,-39,-73,34,-73,-14,-28,5,18,-23
0,-29,-29,-39,-78,29,-78,-19,-29,14,14,-29
-9,-39,-29,-39,-82,24,-82,-24,-30,24,10,-34
-19,-48,-29,-39,-87,19,-87,-29,-29,33,5,-38
-39,-53,-39,-43,-97,29,-78,-29,-14,46,-12,-33
-48,-58,-39,-48,-97,29,-78,-29,-10,53,-19,-34
-58,-63,-39,-53,-97,29,-78,-29,-5,60,-26,-34
-68,-68,-39,-58,-97,29,-78,-29,0,68,-34,-34
-53,-53,-29,-43,-87,34,-73,-24,0,53,-26,-26
-39,-48,-29,-39,-78,39,-68,-19,-9,43,-15,-28
-24,-43,-29,-34,-68,43,-63,-14,-19,33,-2,-31
-9,-39,-29,-29,-58,48,-58,-9,-30,24,10,-34
-29,-58,-34,-39,-73,43,-68,-24,-29,43,0,-43
-39,-68,-39,-48,-78,39,-68,-29,-29,53,-5,-48
-48,-78,-43,-58,-82,34,-68,-34,-30,63,-9,-54
-58,-87,-48,-68,-87,29,-68,-39,-29,72,-14,-58
-48,-73,-53,-82,-92,14,-68,-29,-25,60,-11,-49
-48,-68,-58,-87,-97,9,-68,-29,-20,58,-14,-44
-48,-63,-63,-92,-102,4,-68,-29,-15,55,-16,-39
-48,-58,-68,-97,-107,0,-68,-29,-10,53,-19,-34
-39,-58,-58,-97,-102,14,-48,-24,-19,48,-10,-38
-39,-58,-58,-97,-97,19,-39,-19,-19,48,-10,-38
-39,-58,-58,-97,-92,24,-29,-14,-19,48,-10,-38
-39,-58,-58,-97,-87,29,-19,-9,-19,48,-10,-38
-58,-58,-73,-107,-87,29,-19,-19,0,58,-29,-29
-68,-58,-78,-107,-87,29,-19,-19,10,63,-39,-24
-78,-58,-82,-107,-87,29,-19,-19,20,68,-49,-19
-87,-58,-87,-107,-87,29,-19,-19,29,72,-58,-14
-58,-43,-73,-102,-78,53,-4,-4,15,50,-36,-14
-29,-29,-68,-97,-68,68,9,0,0,29,-14,-14
0,-14,-63,-92,-58,82,24,4,-14,7,7,-14
29,0,-58,-87,-48,97,39,9,-29,-14,29,-14
9,-4,-73,-102,-63,82,34,4,-13,-2,11,-8
0,-9,-87,-117,-78,78,29,0,-9,4,4,-9
-9,-14,-102,-131,-92,73,24,-4,-5,11,-2,-9
-19,-19,-117,-146,-107,68,19,-9,0,19,-9,-9
-4,4,-112,-136,-107,78,39,-9,8,0,-6,6
0,19,-107,-136,-107,87,48,-9,19,-9,-9,19
4,34,-102,-136,-107,97,58,-9,30,-19,-13,32
9,48,-97,-136,-107,107,68,-9,39,-28,-15,43
24,39,-82,-126,-102,117,78,4,15,-31,4,27
29,39,-78,-126,-97,126,87,9,10,-34,9,24
34,39,-73,-126,-92,136,97,14,5,-36,14,22
39,39,-68,-126,-87,146,107,19,0,-39,19,19
24,19,-87,-141,-97,146,107,9,-5,-21,14,7
9,9,-107,-156,-107,146,107,0,0,-9,4,4
-4,0,-126,-170,-117,146,107,-9,4,2,-4,2
-19,-9,-146,-185,-126,146,107,-19,10,14,-14,0
-29,-9,-146,-195,-122,161,117,0,20,19,-24,5
-29,-9,-146,-195,-117,165,126,9,20,19,-24,5
-29,-9,-146,-195,-112,170,136,19,20,19,-24,5
-29,-9,-146,-195,-107,175,146,29,20,19,-24,5
-14,4,-136,-204,-97,190,156,29,18,5,-16,11
0,9,-136,-204,-97,195,165,29,9,-4,-4,9
14,14,-136,-204,-97,200,175,29,0,-14,7,7
29,19,-136,-204,-97,204,185,29,-10,-24,19,4
14,14,-151,-224,-107,200,175,29,0,-14,7,7
9,9,-156,-234,-117,195,175,29,0,-9,4,4
4,4,-161,-244,-126,190,175,29,0,-4,2,2
0,0,-165,-253,-136,185,175,29,0,0,0,0
0,9,-165,-253,-126,190,190,43,9,-4,-4,9
0,9,-165,-253,-126,195,195,48,9,-4,-4,9
0,9,-165,-253,-126,200,200,53,9,-4,-4,9
0,9,-165,-253,-126,204,204,58,9,-4,-4,9
-4,24,-151,-248,-117,204,214,73,28,-10,-16,26
-9,29,-146,-244,-117,204,214,78,38,-10,-23,33
-14,34,-141,-239,-117,204,214,82,48,-10,-31,41
-19,39,-136,-234,-117,204,214,87,58,-10,-38,48
-9,58,-141,-244,-117,195,204,87,67,-24,-38,62
0,68,-146,-244,-117,195,204,87,68,-34,-34,68
9,78,-151,-244,-117,195,204,87,69,-43,-30,73
19,87,-156,-244,-117,195,204,87,68,-53,-24,77
-4,73,-170,-244,-131,175,185,82,77,-34,-40,75
-19,58,-175,-244,-136,165,175,78,77,-19,-48,67
-34,43,-180,-244,-141,156,165,73,77,-4,-55,60
-48,29,-185,-244,-146,146,156,68,77,9,-62,53
-58,14,-175,-244,-136,136,151,68,72,22,-65,43
-68,9,-165,-244,-136,136,146,68,77,29,-72,43
-78,4,-156,-244,-136,136,141,68,82,37,-80,43
-87,0,-146,-244,-136,136,136,68,87,43,-87,43
-78,4,-131,-229,-146,122,117,63,82,37,-80,43
-68,9,-126,-224,-146,107,107,58,77,29,-72,43
-58,14,-122,-219,-146,92,97,53,72,22,-65,43
-48,19,-117,-214,-146,78,87,48,67,14,-57,43
-117,-19,-78,-156,-107,78,68,68,98,68,-107,39
-97,-29,-97,-175,-126,58,48,48,68,63,-82,19
-48,19,-107,-175,-117,58,48,29,67,14,-57,43
-63,9,-97,-161,-107,53,34,24,72,27,-67,40
-78,9,-97,-156,-107,48,29,19,87,34,-82,48
-92,9,-97,-151,-107,43,24,14,101,41,-96,55
-107,9,-97,-146,-107,39,19,9,116,49,-111,62
-107,-4,-87,-131,-102,24,14,9,103,55,-105,49
-107,-9,-78,-117,-97,19,9,9,98,58,-102,44
-107,-14,-68,-102,-92,14,4,9,93,60,-100,39
-107,-19,-58,-87,-87,9,0,9,88,63,-97,34
-73,14,-43,-63,-78,9,-9,19,87,29,-80,50
-39,39,-29,-48,-68,9,-9,19,78,0,-58,58
-4,63,-14,-34,-58,9,-9,19,67,-29,-35,65
29,87,0,-19,-48,9,-9,19,58,-58,-14,72
-4,53,4,-14,-39,0,-14,9,57,-24,-30,55
-29,19,9,-9,-39,0,-19,9,48,5,-38,33
-53,-14,14,-4,-39,0,-24,9,39,33,-46,12
-78,-48,19,0,-39,0,-29,9,30,63,-54,-9
-63,-34,9,0,-39,-9,-43,0,29,48,-46,-2
-58,-29,9,0,-39,-9,-48,0,29,43,-43,0
-53,-24,9,0,-39,-9,-53,0,29,38,-41,2
-48,-19,9,0,-39,-9,-58,0,29,33,-38,5
-68,-19,14,14,-29,-9,-68,0,49,43,-58,15
-78,-19,19,19,-29,-9,-68,0,59,48,-68,20
-87,-19,24,24,-29,-9,-68,0,68,53,-77,24
-97,-19,29,29,-29,-9,-68,0,78,58,-87,29
-68,-4,39,34,-19,-4,-58,0,64,36,-66,30
-48,9,39,39,-19,0,-58,0,57,19,-52,33
-29,24,39,43,-19,4,-58,0,53,2,-41,38
-9,39,39,48,-19,9,-58,0,48,-15,-28,43
-43,9,39,43,-24,4,-73,-4,52,17,-47,30
-68,-9,39,39,-29,0,-78,-9,59,38,-63,25
-92,-29,39,34,-34,-4,-82,-14,63,60,-77,17
-117,-48,39,29,-39,-9,-87,-19,69,82,-93,10
-102,-48,34,29,-39,-9,-87,-29,54,75,-78,3
-97,-48,29,29,-39,-9,-87,-29,49,72,-73,0
-92,-48,24,29,-39,-9,-87,-29,44,70,-68,-2
-87,-48,19,29,-39,-9,-87,-29,39,67,-63,-4
-68,-39,29,43,-19,0,-78,-9,29,53,-48,-5
-48,-29,39,58,-9,9,-68,0,19,38,-33,-5
-29,-19,48,73,0,19,-58,9,10,24,-19,-4
-9,-9,58,87,9,29,-48,19,0,9,-4,-4
-39,-34,34,68,-14,14,-63,9,5,36,-22,-14
-68,-48,19,48,-29,0,-78,0,20,58,-44,-14
-97,-63,4,29,-43,-14,-92,-9,34,80,-65,-14
-126,-78,-9,9,-58,-29,-107,-19,48,102,-87,-15
-112,-73,0,24,-48,-39,-97,-19,39,92,-75,-17
-107,-68,9,29,-48,-39,-97,-19,39,87,-73,-14
-102,-63,19,34,-48,-39,-97,-19,39,82,-70,-12
-97,-58,29,39,-48,-39,-97,-19,39,77,-68,-9
-92,-39,43,48,-48,-34,-92,-19,53,65,-72,7
-87,-19,48,48,-48,-29,-87,-19,68,53,-77,24
-82,0,53,48,-48,-24,-82,-19,82,41,-82,41
-78,19,58,48,-48,-19,-78,-19,97,29,-87,58
-58,43,58,58,-34,-14,-68,-4,101,7,-79,72
-48,58,58,58,-29,-9,-68,0,106,-5,-77,82
-39,73,58,58,-24,-4,-68,4,112,-17,-75,92
-29,87,58,58,-19,0,-68,9,116,-29,-72,101
-58,19,43,43,-24,-9,-78,0,77,19,-67,48
-78,-39,39,39,-29,-9,-78,0,39,58,-58,0
-97,-97,34,34,-34,-9,-78,0,0,97,-48,-48
-117,-156,29,29,-39,-9,-78,0,-39,136,-39,-97
-126,-141,34,34,-39,-9,-78,-4,-15,133,-55,-78
-136,-126,39,39,-39,-9,-78,-9,10,131,-73,-58
-146,-112,43,43,-39,-9,-78,-14,34,129,-90,-39
-156,-97,48,48,-39,-9,-78,-19,59,126,-107,-19
-146,-78,58,48,-48,-9,-78,-29,68,112,-107,-5
-136,-68,58,48,-48,-9,-78,-29,68,102,-102,0
-126,-58,58,48,-48,-9,-78,-29,68,92,-97,5
-117,-48,58,48,-48,-9,-78,-29,69,82,-93,10
-126,-73,48,39,-48,0,-68,-19,53,99,-89,-10
-136,-87,48,39,-48,0,-68,-19,49,111,-92,-19
-146,-102,48,39,-48,0,-68,-19,44,124,-95,-29
-156,-117,48,39,-48,0,-68,-19,39,136,-97,-39
-141,-107,63,48,-39,9,-48,-9,34,124,-87,-36
-136,-97,78,58,-29,19,-39,0,39,116,-87,-29
-131,-87,92,68,-19,29,-29,9,44,109,-87,-21
-126,-78,107,78,-9,39,-19,19,48,102,-87,-15
-126,-97,92,68,-19,19,-43,0,29,111,-77,-34
-126,-107,78,58,-29,9,-58,-9,19,116,-72,-44
-126,-117,63,48,-39,0,-73,-19,9,121,-67,-54
-126,-126,48,39,-48,-9,-87,-29,0,126,-63,-63
-131,-117,29,24,-58,-19,-87,-34,14,124,-72,-51
-136,-117,19,19,-58,-19,-87,-39,19,126,-77,-49
-141,-117,9,14,-58,-19,-87,-43,24,129,-82,-46
-146,-117,0,9,-58,-19,-87,-48,29,131,-87,-44
-136,-97,14,19,-63,-24,-102,-58,39,116,-87,-29
-136,-87,19,19,-68,-29,-107,-58,49,111,-92,-19
-136,-78,24,19,-73,-34,-112,-58,58,107,-97,-10
-136,-68,29,19,-78,-39,-117,-58,68,102,-102,0
-175,-126,78,58,-29,-19,-97,-29,49,150,-112,-38
-165,-146,68,48,-48,-39,-146,-68,19,155,-92,-63
-97,-175,39,19,-87,-97,-224,-136,-78,136,-9,-126
-126,-214,29,29,-87,-117,-273,-175,-88,170,-19,-151
-195,-244,48,68,-58,-107,-302,-195,-49,219,-73,-146
-185,-244,68,78,-39,-107,-322,-204,-59,214,-63,-151
-234,-263,87,78,-19,-87,-322,-214,-29,248,-102,-146
-283,-263,87,97,0,-48,-283,-195,20,273,-151,-121
-165,-97,117,136,68,48,-175,-126,68,131,-116,-14
0,87,165,195,146,175,-19,-39,87,-43,-43,87
39,117,156,204,195,292,146,19,78,-78,-19,97
9,97,146,224,263,439,351,87,88,-53,-39,92
0,97,146,244,351,624,614,146,97,-48,-48,97
29,117,97,224,390,780,858,195,88,-73,-29,102
107,195,58,195,419,927,1112,263,88,-151,9,141
136,253,78,214,488,1083,1385,370,117,-194,9,185
117,302,97,253,546,1210,1639,448,185,-209,-34,243
87,370,78,263,585,1317,1825,488,283,-228,-98,326
58,390,78,263,605,1385,1952,507,332,-224,-137,361
29,380,97,283,624,1434,2049,546,351,-204,-161,365
19,380,117,283,605,1395,2030,527,361,-199,-171,370
29,302,117,273,527,1141,1688,429,273,-165,-122,287
-9,165,126,283,429,741,1102,292,174,-78,-91,169
-78,107,156,302,351,390,595,204,185,-14,-131,146
-107,87,185,331,283,117,175,156,194,10,-150,140
-78,39,214,341,214,-107,-195,97,117,19,-97,78
-39,-19,204,331,185,-195,-400,9,20,29,-29,0
-68,-87,175,322,195,-175,-429,-97,-19,77,-24,-53
-107,-107,214,380,234,-136,-409,-136,0,107,-53,-53
-39,-78,253,419,244,-117,-409,-146,-39,58,0,-58
-19,-107,253,439,263,-87,-400,-146,-88,63,34,-97
-117,-146,312,527,351,-19,-331,-117,-29,131,-44,-87
-156,-107,380,644,458,58,-273,-97,49,131,-102,-29
-136,-87,390,702,488,78,-263,-126,49,111,-92,-19
-97,-68,409,741,517,78,-244,-117,29,82,-63,-19
-78,-9,439,790,527,78,-224,-87,69,43,-73,30
-87,58,448,810,488,48,-244,-117,145,14,-116,101
-107,58,478,829,429,0,-273,-136,165,24,-136,111
-165,0,546,878,409,9,-263,-97,165,82,-165,82
-175,-48,585,936,409,39,-214,-58,127,111,-151,39
-107,-9,605,976,400,39,-204,-58,98,58,-102,44
-39,39,614,1005,370,19,-224,-78,78,0,-58,58
9,117,634,1015,370,29,-204,-68,108,-63,-49,112
19,195,653,995,370,58,-156,-19,176,-107,-78,185
-9,195,624,917,322,58,-146,0,204,-93,-106,199
-29,156,546,780,234,0,-195,-48,185,-63,-107,170
-78,87,448,634,136,-68,-263,-117,165,-4,-121,126
-97,9,400,556,87,-87,-273,-126,106,44,-101,57
0,19,439,546,126,-9,-175,-29,19,-9,-9,19
48,68,429,497,126,48,-97,19,20,-58,14,44
-68,19,322,341,48,9,-126,-29,87,24,-77,53
-156,-29,244,234,-19,-29,-156,-48,127,92,-141,49
-107,-9,234,195,-19,-19,-136,-29,98,58,-102,44
-39,0,214,165,-19,-9,-117,-39,39,19,-39,19
-19,-29,185,146,-19,9,-107,-19,-10,24,-4,-19
-34,-24,165,126,-29,14,-92,-14,10,29,-22,-7
-39,-19,146,117,-29,19,-87,-9,20,29,-29,0
-43,-14,126,107,-29,24,-82,-4,29,28,-36,7
-48,-9,107,97,-29,29,-78,0,39,28,-43,15
-29,9,92,82,-34,19,-78,0,38,10,-33,23
-19,19,78,68,-39,19,-78,0,38,0,-28,28
-9,29,63,53,-43,19,-78,0,38,-10,-23,33
0,39,48,39,-48,19,-78,0,39,-19,-19,39
-9,24,43,29,-53,9,-92,-4,33,-7,-21,28
-9,9,39,29,-58,9,-97,-9,18,0,-13,13
-9,-4,34,29,-63,9,-102,-14,5,6,-7,0
-9,-19,29,29,-68,9,-107,-19,-10,14,0,-14
0,-34,14,14,-78,24,-92,-14,-34,17,17,-34
0,-39,9,9,-78,29,-87,-9,-39,19,19,-39
0,-43,4,4,-78,34,-82,-4,-43,21,21,-43
0,-48,0,0,-78,39,-78,0,-48,24,24,-48
-14,-43,4,9,-68,48,-78,9,-29,28,7,-36
-19,-39,9,9,-68,48,-78,9,-20,29,0,-29
-24,-34,14,9,-68,48,-78,9,-10,29,-7,-22
-29,-29,19,9,-68,48,-78,9,0,29,-14,-14
-48,-39,14,4,-73,39,-87,0,9,43,-28,-15
-58,-39,9,0,-78,39,-87,0,19,48,-38,-10
-68,-39,4,-4,-82,39,-87,0,29,53,-48,-5
-78,-39,0,-9,-87,39,-87,0,39,58,-58,0
-53,-39,-4,-24,-97,34,-92,-9,14,46,-33,-12
-39,-39,-9,-29,-97,29,-97,-19,0,39,-19,-19
-24,-39,-14,-34,-97,24,-102,-29,-15,31,-4,-27
-9,-39,-19,-39,-97,19,-107,-39,-30,24,10,-34
-29,-53,-29,-48,-107,24,-97,-29,-24,41,-2,-38
-39,-58,-29,-48,-107,29,-97,-29,-19,48,-10,-38
-48,-63,-29,-48,-107,34,-97,-29,-15,55,-16,-39
-58,-68,-29,-48,-107,39,-97,-29,-10,63,-24,-39
-43,-68,-29,-58,-97,34,-107,-39,-25,55,-9,-46
-29,-68,-29,-58,-97,29,-107,-39,-39,48,5,-53
-14,-68,-29,-58,-97,24,-107,-39,-54,41,20,-61
0,-68,-29,-58,-97,19,-107,-39,-68,34,34,-68
-9,-58,-29,-68,-102,29,-97,-29,-49,33,20,-53
-9,-48,-29,-68,-107,29,-97,-29,-39,28,15,-43
-9,-39,-29,-68,-112,29,-97,-29,-30,24,10,-34
-9,-29,-29,-68,-117,29,-97,-29,-20,19,5,-24
-14,-43,-34,-73,-126,14,-102,-43,-29,28,7,-36
-19,-48,-39,-78,-126,9,-107,-48,-29,33,5,-38
-24,-53,-43,-82,-126,4,-112,-53,-29,38,2,-41
-29,-58,-48,-87,-126,0,-117,-58,-29,43,0,-43
-29,-63,-29,-68,-102,24,-87,-29,-34,46,2,-48
-29,-68,-19,-58,-87,39,-68,-9,-39,48,5,-53
-29,-73,-9,-48,-73,53,-48,9,-44,51,7,-58
-29,-78,0,-39,-58,68,-29,29,-49,53,10,-63
-14,-58,-24,-63,-82,43,-43,4,-44,36,15,-51
0,-48,-39,-78,-97,29,-58,-9,-48,24,24,-48
14,-39,-53,-92,-112,14,-73,-24,-53,12,33,-46
29,-29,-68,-107,-126,0,-87,-39,-58,0,43,-43
19,-53,-58,-107,-117,9,-82,-29,-72,17,45,-62
19,-68,-58,-107,-117,9,-78,-29,-87,24,53,-77
19,-82,-58,-107,-117,9,-73,-29,-101,31,60,-91
19,-97,-58,-107,-117,9,-68,-29,-116,39,67,-106
4,-92,-73,-122,-131,-4,-78,-34,-96,44,50,-94
-9,-87,-78,-126,-136,-9,-78,-39,-78,48,34,-82
-24,-82,-82,-131,-141,-14,-78,-43,-58,53,17,-70
-39,-78,-87,-136,-146,-19,-78,-48,-39,58,0,-58
-48,-126,-126,-185,-185,-39,-97,-78,-78,87,15,-102
-29,-126,-117,-185,-185,-29,-78,-78,-97,77,34,-111
-29,-48,-39,-117,-117,39,9,0,-19,38,-5,-33
0,-9,-19,-97,-87,68,39,19,-9,4,4,-9
29,-39,-78,-126,-117,39,0,-19,-68,5,48,-53
58,-19,-92,-141,-126,39,9,-19,-77,-19,67,-48
78,0,-97,-146,-126,39,9,-19,-78,-39,78,-39
97,19,-102,-151,-126,39,9,-19,-78,-58,87,-29
117,39,-107,-156,-126,39,9,-19,-78,-78,97,-19
102,34,-112,-170,-136,53,24,-9,-68,-68,85,-17
87,29,-117,-175,-136,58,29,-9,-58,-58,72,-14
73,24,-122,-180,-136,63,34,-9,-49,-48,61,-12
58,19,-126,-185,-136,68,39,-9,-39,-38,48,-10
68,14,-126,-195,-146,78,43,-9,-54,-41,61,-20
68,9,-126,-195,-146,78,48,-9,-59,-38,63,-25
68,4,-126,-195,-146,78,53,-9,-64,-36,66,-30
68,0,-126,-195,-146,78,58,-9,-68,-34,68,-34
58,9,-136,-209,-151,92,73,-4,-49,-33,53,-20
48,9,-136,-214,-156,97,78,0,-39,-28,43,-15
39,9,-136,-219,-161,102,82,4,-30,-24,34,-10
29,9,-136,-224,-165,107,87,9,-20,-19,24,-5
24,4,-146,-239,-175,107,87,4,-20,-14,22,-8
19,0,-156,-244,-175,107,87,0,-19,-9,19,-9
14,-4,-165,-248,-175,107,87,-4,-18,-5,16,-11
9,-9,-175,-253,-175,107,87,-9,-18,0,13,-13
0,-4,-185,-253,-165,122,97,-4,-4,2,2,-4
-9,0,-185,-253,-165,126,107,0,9,4,-9,4
-19,4,-185,-253,-165,131,117,4,23,7,-21,13
-29,9,-185,-253,-165,136,126,9,38,10,-33,23
-14,19,-190,-268,-180,136,126,9,33,-2,-23,26
0,29,-195,-273,-185,136,126,9,29,-14,-14,29
14,39,-200,-278,-190,136,126,9,25,-26,-5,32
29,48,-204,-283,-195,136,126,9,19,-38,5,33
14,43,-214,-287,-200,126,136,14,29,-28,-7,36
0,39,-214,-292,-204,126,136,19,39,-19,-19,39
-14,34,-214,-297,-209,126,136,24,48,-10,-31,41
-29,29,-214,-302,-214,126,136,29,58,0,-43,43
-19,43,-204,-297,-214,117,126,19,62,-12,-40,52
-9,48,-195,-292,-214,117,126,19,57,-19,-33,52
0,53,-185,-287,-214,117,126,19,53,-26,-26,53
9,58,-175,-283,-214,117,126,19,49,-33,-20,53
24,78,-161,-268,-200,126,141,43,54,-51,-15,66
29,87,-146,-253,-185,136,146,58,58,-58,-14,72
34,97,-131,-239,-170,146,151,73,63,-65,-14,80
39,107,-117,-224,-156,156,156,87,68,-73,-14,87
48,122,-122,-234,-165,136,136,73,74,-85,-13,98
58,126,-126,-234,-175,126,126,68,68,-92,-5,97
68,131,-131,-234,-185,117,117,63,63,-99,2,97
78,136,-136,-234,-195,107,107,58,58,-107,10,97
58,126,-126,-219,-185,102,87,48,68,-92,-5,97
48,117,-126,-214,-185,97,78,48,69,-82,-10,93
39,107,-126,-209,-185,92,68,48,68,-73,-14,87
29,97,-126,-204,-185,87,58,48,68,-63,-19,82
24,82,-122,-190,-170,78,48,43,58,-53,-17,70
19,78,-117,-185,-165,68,39,39,59,-48,-20,68
14,73,-112,-180,-161,58,29,34,59,-43,-22,66
9,68,-107,-175,-156,48,19,29,59,-38,-25,63
4,58,-92,-161,-141,48,14,19,54,-31,-25,56
0,58,-78,-146,-136,48,9,19,58,-29,-29,58
-4,58,-63,-131,-131,48,4,19,62,-27,-33,60
-9,58,-48,-117,-126,48,0,19,67,-24,-38,62
-24,53,-34,-97,-107,58,9,24,77,-14,-50,65
-29,48,-19,-78,-97,58,9,29,77,-9,-53,62
-34,43,-4,-58,-87,58,9,34,77,-4,-55,60
-39,39,9,-39,-78,58,9,39,78,0,-58,58
-24,53,19,-19,-63,48,4,39,77,-14,-50,65
-9,58,29,-9,-58,48,0,39,67,-24,-38,62
4,63,39,0,-53,48,-4,39,59,-33,-27,61
19,68,48,9,-48,48,-9,39,49,-43,-15,58
0,43,39,24,-39,34,-24,34,43,-21,-21,43
-19,19,39,29,-39,29,-29,29,38,0,-28,28
-39,-4,39,34,-39,24,-34,24,35,21,-37,15
-58,-29,39,39,-39,19,-39,19,29,43,-43,0
-48,-43,48,39,-48,14,-53,14,5,45,-26,-19
-48,-48,48,39,-48,9,-58,9,0,48,-24,-24
-48,-53,48,39,-48,4,-63,4,-5,50,-21,-29
-48,-58,48,39,-48,0,-68,0,-10,53,-19,-34
-58,-48,48,39,-39,9,-58,9,10,53,-34,-19
-68,-39,48,39,-39,9,-58,9,29,53,-48,-5
-78,-29,48,39,-39,9,-58,9,49,53,-63,10
-87,-19,48,39,-39,9,-58,9,68,53,-77,24
-73,-24,29,29,-48,0,-78,0,49,48,-61,12
-68,-29,19,19,-58,-9,-87,-9,39,48,-53,5
-63,-34,9,9,-68,-19,-97,-19,29,48,-46,-2
-58,-39,0,0,-78,-29,-107,-29,19,48,-38,-10
-73,-34,4,4,-63,-19,-102,-24,39,53,-56,2
-78,-29,9,9,-58,-19,-97,-19,49,53,-63,10
-82,-24,14,14,-53,-19,-92,-14,58,53,-70,17
-87,-19,19,19,-48,-19,-87,-9,68,53,-77,24
-82,-29,34,24,-58,-19,-97,-14,53,55,-67,12
-78,-29,39,29,-58,-19,-97,-19,49,53,-63,10
-73,-29,43,34,-58,-19,-97,-24,44,51,-58,7
-68,-29,48,39,-58,-19,-97,-29,39,48,-53,5
-29,58,68,68,-29,0,-87,0,87,-14,-58,72
-58,0,48,58,-48,-29,-117,-19,58,29,-58,29
-39,-97,48,48,-68,-58,-156,-48,-58,68,9,-77
-29,-156,68,78,-48,-68,-185,-68,-127,92,49,-141
-117,-204,107,117,-19,-68,-224,-87,-87,160,-15,-145
-175,-195,126,126,-19,-97,-292,-117,-20,185,-77,-107
-117,-165,126,136,-9,-107,-351,-146,-48,141,-34,-106
-19,-107,156,156,19,-78,-361,-156,-88,63,34,-97
-19,-78,156,175,39,-48,-341,-146,-59,48,20,-68
-156,-126,146,165,48,-9,-312,-126,30,141,-93,-48
-214,-136,126,165,68,48,-244,-97,78,175,-146,-29
-156,-68,97,136,68,126,-117,-68,88,112,-122,10
-126,48,78,117,87,244,78,-19,174,39,-150,111
-117,107,78,136,175,439,380,58,224,5,-170,165
-48,107,78,175,302,712,761,175,155,-29,-101,131
9,126,68,175,390,966,1141,292,117,-67,-54,121
0,234,78,195,468,1171,1483,409,234,-117,-117,234
-9,331,126,263,575,1346,1795,517,340,-161,-174,335
-29,390,136,302,644,1483,2020,575,419,-180,-224,404
-29,439,126,312,663,1551,2108,585,468,-205,-248,453
29,439,146,341,702,1590,2186,605,410,-234,-190,424
39,409,146,351,702,1551,2147,605,370,-224,-165,389
-19,361,146,341,624,1288,1756,527,380,-171,-199,370
-126,253,185,370,556,907,1141,419,379,-63,-252,316
-156,224,263,448,536,595,634,351,380,-34,-268,302
-156,224,302,478,488,331,195,283,380,-34,-268,302
-165,126,292,458,380,48,-214,165,291,19,-228,208
-165,-9,263,448,322,-87,-429,78,156,87,-160,73
-175,-39,244,458,341,-39,-400,29,136,107,-155,48
-204,-19,253,448,351,9,-361,0,185,111,-194,83
-185,-29,263,478,380,39,-341,-19,156,107,-170,63
-175,-78,292,566,507,136,-273,-29,97,126,-136,9
-195,-68,322,683,634,234,-214,-39,127,131,-161,29
-136,9,341,741,673,253,-204,-68,145,63,-140,77
-39,39,361,800,683,244,-204,-68,78,0,-58,58
-117,-39,409,888,712,263,-175,-58,78,78,-97,19
-234,-39,458,936,702,234,-165,-48,195,136,-214,78
-175,48,478,956,644,175,-195,-68,223,63,-199,135
-107,58,488,985,595,136,-224,-107,165,24,-136,111
-165,9,527,1063,614,136,-224,-97,174,78,-169,91
-175,19,575,1132,634,156,-195,-48,194,78,-184,106
-146,48,575,1122,595,156,-175,-29,194,49,-170,121
-126,68,546,1063,536,146,-156,-29,194,29,-160,131
-117,78,546,1015,507,165,-126,0,195,19,-156,136
-136,58,527,927,458,156,-117,19,194,39,-165,126
-165,9,468,800,361,117,-146,-19,174,78,-169,91
-136,29,429,663,273,78,-156,-29,165,53,-150,97
-78,78,370,517,195,58,-126,0,156,0,-117,117
-58,68,283,361,107,39,-117,9,126,-5,-92,97
-78,0,214,253,29,19,-136,0,78,39,-78,39
-97,-68,185,214,0,9,-136,0,29,82,-63,-19
-87,-68,175,185,-19,19,-117,9,19,77,-53,-24
-68,-19,146,156,-48,19,-117,0,49,43,-58,15
-58,0,126,126,-58,9,-117,-19,58,29,-58,29
-58,9,126,126,-29,29,-97,-9,67,24,-62,38
-53,0,112,117,-14,39,-92,4,53,26,-53,26
-48,0,107,107,-9,48,-87,9,48,24,-48,24
-43,0,102,97,-4,58,-82,14,43,21,-43,21
-39,0,97,87,0,68,-78,19,39,19,-39,19
-29,0,92,87,-14,68,-68,29,29,14,-29,14
-29,0,87,87,-19,68,-68,29,29,14,-29,14
-29,0,82,87,-24,68,-68,29,29,14,-29,14
-29,0,78,87,-29,68,-68,29,29,14,-29,14
-39,-14,58,63,-43,58,-82,14,25,26,-32,5
-48,-29,39,39,-58,48,-87,9,19,38,-33,-5
-58,-43,19,14,-73,39,-92,4,15,50,-36,-14
-68,-58,0,-9,-87,29,-97,0,10,63,-39,-24
-34,-34,4,0,-78,39,-82,4,0,34,-17,-17
0,-9,9,0,-78,48,-78,9,-9,4,4,-9
34,14,14,0,-78,58,-73,14,-20,-24,27,-3
68,39,19,0,-78,68,-68,19,-29,-53,48,5
29,14,19,-14,-87,68,-78,14,-15,-21,22,0
0,-9,19,-19,-87,68,-78,9,-9,4,4,-9
-29,-34,19,-24,-87,68,-78,4,-5,31,-12,-19
-58,-58,19,-29,-87,68,-78,0,0,58,-29,-29
-39,-43,9,-34,-102,63,-82,0,-4,41,-17,-23
-19,-29,0,-39,-107,58,-87,0,-10,24,-4,-19
0,-14,-9,-43,-112,53,-92,0,-14,7,7,-14
19,0,-19,-48,-117,48,-97,0,-19,-9,19,-9
29,-4,-9,-39,-107,39,-97,-9,-33,-12,31,-18
29,-9,-9,-39,-107,39,-97,-9,-38,-10,33,-23
29,-14,-9,-39,-107,39,-97,-9,-43,-7,36,-28
29,-19,-9,-39,-107,39,-97,-9,-48,-5,38,-33
19,-19,-9,-39,-112,29,-87,-19,-38,0,28,-28
19,-19,-9,-39,-117,29,-87,-19,-38,0,28,-28
19,-19,-9,-39,-122,29,-87,-19,-38,0,28,-28
19,-19,-9,-39,-126,29,-87,-19,-38,0,28,-28
4,-48,0,-48,-136,24,-97,-24,-52,22,28,-50
0,-68,0,-48,-136,19,-97,-29,-68,34,34,-68
-4,-87,0,-48,-136,14,-97,-34,-83,45,39,-85
-9,-107,0,-48,-136,9,-97,-39,-98,58,44,-102
-19,-102,-4,-39,-131,14,-87,-24,-83,60,32,-92
-19,-97,-9,-39,-126,19,-87,-19,-78,58,29,-87
-19,-92,-14,-39,-122,24,-87,-14,-73,55,27,-82
-19,-87,-19,-39,-117,29,-87,-9,-68,53,24,-77
-34,-73,-4,-34,-102,43,-78,4,-39,53,2,-56
-39,-68,0,-29,-97,48,-68,9,-29,53,-5,-48
-43,-63,4,-24,-92,53,-58,14,-20,53,-11,-41
-48,-58,9,-19,-87,58,-48,19,-10,53,-19,-34
-39,-82,-14,-39,-107,43,-68,-4,-43,60,2,-62
-39,-97,-29,-58,-126,29,-78,-19,-58,68,9,-77
-39,-112,-43,-78,-146,14,-87,-34,-73,75,17,-92
-39,-126,-58,-97,-165,0,-97,-48,-87,82,24,-106
-9,-82,-39,-78,-146,19,-78,-24,-73,45,32,-77
19,-48,-19,-58,-126,39,-58,-9,-67,14,43,-57
48,-14,0,-39,-107,58,-39,4,-62,-17,55,-38
78,19,19,-19,-87,78,-19,19,-59,-48,68,-20
73,19,9,-34,-87,82,-14,19,-54,-46,63,-17
68,19,9,-39,-87,87,-9,19,-49,-43,58,-15
63,19,9,-43,-87,92,-4,19,-44,-41,53,-12
58,19,9,-48,-87,97,0,19,-39,-38,48,-10
43,19,0,-53,-92,92,9,9,-24,-31,33,-2
39,19,0,-58,-97,87,9,9,-20,-29,29,0
34,19,0,-63,-102,82,9,9,-15,-26,24,2
29,19,0,-68,-107,78,9,9,-10,-24,19,4
9,-14,-14,-87,-117,78,14,4,-23,2,16,-18
-9,-39,-29,-97,-126,78,19,0,-30,24,10,-34
-29,-63,-43,-107,-136,78,24,-4,-34,46,2,-48
-48,-87,-58,-117,-146,78,29,-9,-39,67,-4,-63
-29,-73,-58,-107,-141,82,43,-4,-44,51,7,-58
-19,-58,-58,-107,-136,87,48,0,-39,38,10,-48
-9,-43,-58,-107,-131,92,53,4,-34,26,12,-38
0,-29,-58,-107,-126,97,58,9,-29,14,14,-29
9,-34,-68,-122,-136,107,73,9,-43,12,26,-38
9,-39,-68,-126,-136,107,78,9,-48,15,28,-43
9,-43,-68,-131,-136,107,82,9,-52,17,30,-47
9,-48,-68,-136,-136,107,87,9,-57,19,33,-52
4,-48,-73,-146,-146,97,87,9,-52,22,28,-50
0,-48,-78,-146,-146,97,87,9,-48,24,24,-48
-4,-48,-82,-146,-146,97,87,9,-44,26,20,-46
-9,-48,-87,-146,-146,97,87,9,-39,28,15,-43
-4,-58,-87,-151,-131,117,97,24,-54,31,25,-56
0,-58,-87,-156,-126,126,107,29,-58,29,29,-58
4,-58,-87,-161,-122,136,117,34,-62,27,33,-60
9,-58,-87,-165,-117,146,126,39,-67,24,38,-62
-9,-87,-146,-224,-175,87,78,-19,-78,48,34,-82
-19,-58,-136,-204,-156,117,107,0,-39,38,10,-48
0,-29,-126,-195,-151,122,117,0,-29,14,14,-29
19,-9,-126,-195,-146,126,117,0,-28,-5,23,-18
39,9,-126,-195,-141,131,117,0,-30,-24,34,-10
58,29,-126,-195,-136,136,117,0,-29,-43,43,0
63,34,-117,-195,-126,141,131,9,-29,-48,46,2
68,39,-117,-195,-126,146,136,19,-29,-53,48,5
73,43,-117,-195,-126,151,141,29,-30,-58,51,6
78,48,-117,-195,-126,156,146,39,-30,-63,54,9
63,34,-117,-185,-117,161,156,48,-29,-48,46,2
58,29,-117,-185,-117,165,156,48,-29,-43,43,0
53,24,-117,-185,-117,170,156,48,-29,-38,41,-2
48,19,-117,-185,-117,175,156,48,-29,-33,38,-5
68,39,-117,-175,-102,190,170,58,-29,-53,48,5
87,48,-117,-165,-97,195,175,68,-39,-67,63,4
107,58,-117,-156,-92,200,180,78,-49,-82,78,4
126,68,-117,-146,-87,204,185,87,-58,-97,92,5
107,73,-107,-146,-97,195,170,73,-34,-90,70,19
87,78,-107,-146,-97,185,156,68,-9,-82,48,34
68,82,-107,-146,-97,175,141,63,14,-75,27,48
48,87,-107,-146,-97,165,126,58,39,-67,4,63
58,92,-87,-131,-87,156,117,63,34,-75,12,63
58,97,-78,-117,-78,156,117,68,39,-77,9,68
58,102,-68,-102,-68,156,117,73,44,-80,7,73
58,107,-58,-87,-58,156,117,78,49,-82,4,78
39,87,-48,-68,-53,146,112,78,48,-63,-4,67
29,68,-39,-58,-48,146,107,78,39,-48,-5,53
19,48,-29,-48,-43,146,102,78,29,-33,-5,38
9,29,-19,-39,-39,146,97,78,20,-19,-5,24
24,53,-34,-39,-53,126,73,68,29,-38,-2,41
39,78,-39,-39,-58,117,58,58,39,-58,0,58
53,102,-43,-39,-63,107,43,48,49,-77,2,75
68,126,-48,-39,-68,97,29,39,58,-97,5,92
68,122,-43,-24,-58,92,9,34,54,-95,7,88
68,117,-39,-19,-58,87,0,29,49,-92,9,83
68,112,-34,-14,-58,82,-9,24,44,-90,12,78
68,107,-29,-9,-58,78,-19,19,39,-87,14,73
63,92,-24,4,-58,73,-24,14,29,-77,17,60
58,87,-19,9,-58,68,-29,9,29,-72,14,58
53,82,-14,14,-58,63,-34,4,29,-67,12,55
48,78,-9,19,-58,58,-39,0,30,-63,9,54
43,68,9,39,-48,63,-39,4,25,-55,9,46
39,68,19,48,-39,68,-39,9,29,-53,5,48
34,68,29,58,-29,73,-39,14,34,-51,0,51
29,68,39,68,-19,78,-39,19,39,-48,-5,53
9,58,24,58,-39,63,-53,0,49,-33,-20,53
0,48,19,48,-48,48,-68,-9,48,-24,-24,48
-9,39,14,39,-58,34,-82,-19,48,-15,-28,43
-19,29,9,29,-68,19,-97,-29,48,-5,-33,38
-14,39,24,43,-58,29,-97,-24,53,-12,-33,46
-9,39,29,48,-58,29,-97,-19,48,-15,-28,43
-4,39,34,53,-58,29,-97,-14,43,-17,-23,41
0,39,39,58,-58,29,-97,-9,39,-19,-19,39
0,34,34,48,-68,24,-102,-24,34,-17,-17,34
0,29,29,48,-68,19,-107,-29,29,-14,-14,29
0,24,24,48,-68,14,-112,-34,24,-12,-12,24
0,19,19,48,-68,9,-117,-39,19,-9,-9,19
4,34,19,48,-68,9,-107,-29,30,-19,-13,32
9,39,19,48,-68,9,-107,-29,30,-24,-10,34
14,43,19,48,-68,9,-107,-29,29,-28,-7,36
19,48,19,48,-68,9,-107,-29,29,-33,-5,38
29,58,29,58,-63,19,-97,-29,29,-43,0,43
29,58,29,58,-58,19,-97,-29,29,-43,0,43
29,58,29,58,-53,19,-97,-29,29,-43,0,43
29,58,29,58,-48,19,-97,-29,29,-43,0,43
-4,43,34,63,-48,29,-97,-39,47,-19,-25,45
-29,39,39,68,-48,29,-97,-39,68,-5,-48,53
-53,34,43,73,-48,29,-97,-39,87,9,-70,60
-78,29,48,78,-48,29,-97,-39,107,24,-92,68
-58,39,48,73,-58,29,-97,-24,97,9,-77,68
-48,39,48,68,-58,29,-97,-19,87,4,-67,63
-39,39,48,63,-58,29,-97,-14,78,0,-58,58
-29,39,48,58,-58,29,-97,-9,68,-5,-48,53
-24,48,48,68,-68,29,-87,-14,72,-12,-48,60
-19,48,48,68,-68,29,-87,-19,67,-14,-43,57
-14,48,48,68,-68,29,-87,-24,62,-17,-38,55
-9,48,48,68,-68,29,-87,-29,57,-19,-33,52
0,39,48,63,-73,24,-92,-19,39,-19,-19,39
0,39,48,58,-78,19,-97,-19,39,-19,-19,39
0,39,48,53,-82,14,-102,-19,39,-19,-19,39
0,39,48,48,-87,9,-107,-19,39,-19,-19,39
-9,48,53,63,-73,19,-97,-19,57,-19,-33,52
-9,58,58,68,-68,29,-87,-19,67,-24,-38,62
-9,68,63,73,-63,39,-78,-19,77,-29,-43,72
-9,78,68,78,-58,48,-68,-19,87,-34,-48,82
0,73,58,68,-68,39,-82,-29,73,-36,-36,73
9,68,58,68,-68,39,-87,-29,59,-38,-25,63
19,63,58,68,-68,39,-92,-29,44,-41,-12,53
29,58,58,68,-68,39,-97,-29,29,-43,0,43
-39,68,107,97,-39,48,-87,-19,107,-14,-73,87
0,97,107,107,-48,48,-117,-48,97,-48,-48,97
19,78,87,97,-68,9,-165,-97,59,-48,-20,68
-58,0,78,97,-78,-9,-234,-136,58,29,-58,29
-87,-29,97,136,-48,-9,-273,-165,58,58,-72,14
-19,29,126,175,-9,9,-292,-165,48,-5,-33,38
-29,68,146,185,9,19,-302,-175,97,-19,-63,82
-97,0,156,185,19,39,-302,-175,97,48,-97,48
-126,-97,146,175,9,78,-263,-146,29,111,-77,-34
-58,-48,87,146,0,107,-204,-146,10,53,-34,-19
29,78,48,136,48,204,-58,-107,49,-53,-10,63
0,107,97,214,175,400,224,19,107,-53,-53,107
-48,87,165,302,322,634,556,156,135,-19,-91,111
19,146,165,292,380,819,839,214,127,-82,-54,136
117,244,107,244,390,946,1083,253,127,-180,-5,185
175,390,78,234,409,1063,1337,351,215,-282,-20,302
214,468,58,234,448,1171,1571,448,254,-341,-20,361
146,429,58,224,458,1249,1737,478,283,-287,-68,356
78,409,78,244,478,1327,1864,497,331,-243,-126,370
107,497,97,273,517,1385,1991,546,390,-302,-141,443
136,556,107,283,527,1376,2000,556,420,-346,-142,488
39,488,126,263,448,1132,1659,468,449,-263,-205,468
-58,312,165,292,361,771,1073,341,370,-127,-214,341
-48,175,214,351,331,497,585,263,223,-63,-135,199
-29,165,234,370,302,283,185,195,194,-68,-111,179
-58,97,204,331,195,39,-214,87,155,-19,-106,126
-136,-78,204,331,156,-48,-429,-9,58,107,-97,-10
-165,-136,234,380,224,9,-400,-29,29,150,-97,-53
-78,-29,253,429,273,48,-370,-58,49,53,-63,10
-9,58,244,448,273,19,-400,-107,67,-24,-38,62
-9,48,263,468,283,29,-390,-126,57,-19,-33,52
-29,19,322,536,361,97,-341,-117,48,5,-38,33
-48,9,370,634,458,156,-283,-97,57,19,-52,33
-87,-39,400,692,507,175,-263,-107,48,63,-67,4
-97,-39,400,712,478,156,-283,-126,58,68,-77,9
-68,9,400,741,468,156,-273,-117,77,29,-72,43
-58,9,429,790,478,156,-244,-107,67,24,-62,38
-87,9,478,839,458,136,-234,-87,96,39,-91,52
-107,39,517,868,429,117,-224,-68,146,34,-126,92
-97,19,546,897,390,97,-244,-78,116,39,-106,67
-87,-39,566,927,370,68,-263,-107,48,63,-67,4
-146,-78,605,995,370,68,-253,-97,68,112,-107,-5
-165,-39,624,1015,370,78,-224,-58,126,102,-145,43
-107,39,595,946,312,68,-234,-58,146,34,-126,92
-97,19,546,839,214,39,-244,-78,116,39,-106,67
-126,-48,527,751,175,39,-224,-78,78,87,-102,15
-87,-39,527,702,175,68,-204,-48,48,63,-67,4
29,68,507,644,156,78,-195,-39,39,-48,-5,53
78,107,439,556,117,78,-185,-29,29,-92,24,68
19,9,351,409,39,48,-185,-39,-10,-14,14,0
-19,-58,273,292,-19,29,-195,-58,-39,38,10,-48
-9,-19,253,253,-19,39,-175,-39,-10,14,0,-14
-9,-9,244,234,-19,48,-156,-9,0,9,-4,-4
-48,-78,195,175,-48,29,-175,-48,-30,63,-9,-54
-78,-107,126,117,-78,19,-185,-68,-29,92,-24,-68
-53,-87,107,92,-87,24,-170,-53,-34,70,-9,-60
-29,-78,97,78,-87,29,-165,-48,-49,53,10,-63
-4,-68,87,63,-87,34,-161,-43,-64,36,30,-66
19,-58,78,48,-87,39,-156,-39,-77,19,48,-67
4,-68,68,39,-92,48,-141,-29,-72,32,38,-70
-9,-68,58,29,-97,48,-136,-29,-59,38,25,-63
-24,-68,48,19,-102,48,-131,-29,-44,46,10,-56
-39,-68,39,9,-107,48,-126,-29,-29,53,-5,-48
-24,-78,24,0,-117,39,-126,-34,-54,51,15,-66
-19,-87,19,0,-117,39,-126,-39,-68,53,24,-77
-14,-97,14,0,-117,39,-126,-43,-83,55,34,-90
-9,-107,9,0,-117,39,-126,-48,-98,58,44,-102
-24,-112,19,-9,-126,48,-126,-43,-88,68,32,-100
-29,-117,19,-9,-126,48,-126,-39,-88,73,29,-102
-34,-122,19,-9,-126,48,-126,-34,-88,78,27,-105
-39,-126,19,-9,-126,48,-126,-29,-87,82,24,-106
-24,-107,19,-19,-126,58,-126,-29,-83,65,29,-95
-19,-87,19,-19,-126,58,-126,-29,-68,53,24,-77
-14,-68,19,-19,-126,58,-126,-29,-54,41,20,-61
-9,-48,19,-19,-126,58,-126,-29,-39,28,15,-43
0,-53,14,-29,-126,48,-136,-39,-53,26,26,-53
0,-58,9,-29,-126,48,-136,-39,-58,29,29,-58
0,-63,4,-29,-126,48,-136,-39,-63,31,31,-63
0,-68,0,-29,-126,48,-136,-39,-68,34,34,-68
-4,-78,-9,-19,-136,48,-136,-39,-74,41,35,-76
-9,-78,-9,-19,-136,48,-136,-39,-69,43,30,-73
-14,-78,-9,-19,-136,48,-136,-39,-64,46,25,-71
-19,-78,-9,-19,-136,48,-136,-39,-59,48,20,-68
-4,-82,0,-29,-136,48,-126,-43,-78,43,37,-80
0,-87,0,-29,-136,48,-126,-48,-87,43,43,-87
4,-92,0,-29,-136,48,-126,-53,-96,44,50,-94
9,-97,0,-29,-136,48,-126,-58,-106,44,57,-101
14,-78,19,-14,-126,53,-117,-48,-92,32,53,-85
19,-68,29,-9,-117,58,-117,-39,-87,24,53,-77
24,-58,39,-4,-107,63,-117,-29,-82,17,53,-70
29,-48,48,0,-97,68,-117,-19,-77,9,53,-62
9,-68,29,-24,-117,58,-131,-24,-77,29,43,-72
0,-78,19,-39,-126,48,-136,-29,-78,39,39,-78
-9,-87,9,-53,-136,39,-141,-34,-78,48,34,-82
-19,-97,0,-68,-146,29,-146,-39,-78,58,29,-87
-29,-112,9,-58,-141,29,-141,-39,-83,70,27,-97
-39,-117,9,-58,-136,29,-136,-39,-78,78,19,-97
-48,-122,9,-58,-131,29,-131,-39,-74,85,13,-98
-58,-126,9,-58,-126,29,-126,-39,-68,92,5,-97
-29,-112,-4,-68,-136,24,-117,-39,-83,70,27,-97
-9,-97,-9,-78,-146,19,-117,-39,-88,53,39,-92
9,-82,-14,-87,-156,14,-117,-39,-91,36,50,-86
29,-68,-19,-97,-165,9,-117,-39,-97,19,63,-82
19,-78,-24,-102,-165,4,-107,-43,-97,29,58,-87
19,-87,-29,-107,-165,0,-107,-48,-106,34,62,-96
19,-97,-34,-112,-165,-4,-107,-53,-116,39,67,-106
19,-107,-39,-117,-165,-9,-107,-58,-126,44,72,-116
53,-78,-39,-117,-156,0,-92,-48,-131,12,92,-104
78,-58,-39,-117,-156,0,-87,-39,-136,-10,107,-97
102,-39,-39,-117,-156,0,-82,-29,-141,-31,121,-90
126,-19,-39,-117,-156,0,-78,-19,-145,-53,135,-82
107,-39,-43,-122,-165,-14,-87,-34,-146,-34,126,-92
87,-58,-48,-126,-165,-19,-87,-39,-145,-14,116,-101
68,-78,-53,-131,-165,-24,-87,-43,-146,5,107,-112
48,-97,-58,-136,-165,-29,-87,-48,-145,24,96,-121
39,-73,-68,-141,-175,-24,-78,-48,-112,17,75,-92
39,-58,-68,-146,-175,-19,-68,-48,-97,9,68,-77
39,-43,-68,-151,-175,-14,-58,-48,-82,2,60,-62
39,-29,-68,-156,-175,-9,-48,-48,-68,-5,53,-48
48,-43,-68,-156,-165,0,-39,-43,-91,-2,69,-67
58,-58,-68,-156,-165,0,-29,-39,-116,0,87,-87
68,-73,-68,-156,-165,0,-19,-34,-141,2,104,-107
78,-87,-68,-156,-165,0,-9,-29,-165,4,121,-126
78,-97,-87,-170,-175,-9,-19,-29,-175,9,126,-136
78,-107,-97,-185,-185,-9,-19,-29,-185,14,131,-146
78,-117,-107,-200,-195,-9,-19,-29,-195,19,136,-156
78,-126,-117,-214,-204,-9,-19,-29,-204,24,141,-165
63,-117,-126,-219,-195,0,-14,-34,-180,27,121,-148
58,-107,-126,-224,-195,0,-9,-39,-165,24,111,-136
53,-97,-126,-229,-195,0,-4,-43,-150,22,101,-123
48,-87,-126,-234,-195,0,0,-48,-135,19,91,-111
63,-73,-126,-244,-204,9,0,-43,-136,5,99,-104
78,-58,-126,-244,-204,9,0,-39,-136,-10,107,-97
92,-43,-126,-244,-204,9,0,-34,-135,-24,113,-89
107,-29,-126,-244,-204,9,0,-29,-136,-39,121,-82
126,-29,-122,-239,-200,19,24,-19,-155,-48,140,-92
146,-29,-117,-234,-195,29,39,-9,-175,-58,160,-102
165,-29,-112,-229,-190,39,53,0,-194,-68,179,-111
185,-29,-107,-224,-185,48,68,9,-214,-78,199,-121
151,-39,-112,-234,-195,48,68,14,-190,-56,170,-114
126,-48,-117,-244,-195,48,68,19,-174,-39,150,-111
102,-58,-122,-253,-195,48,68,24,-160,-22,131,-109
78,-68,-126,-263,-195,48,68,29,-146,-5,112,-107
82,-53,-126,-273,-204,48,73,24,-135,-14,108,-94
87,-48,-126,-273,-204,48,78,19,-135,-19,111,-91
92,-43,-126,-273,-204,48,82,14,-135,-24,113,-89
97,-39,-126,-273,-204,48,87,9,-136,-29,116,-87
107,-48,-141,-283,-214,39,73,9,-155,-29,131,-101
107,-48,-156,-292,-224,29,68,9,-155,-29,131,-101
107,-48,-170,-302,-234,19,63,9,-155,-29,131,-101
107,-48,-185,-312,-244,9,58,9,-155,-29,131,-101
117,-29,-170,-297,-234,19,63,24,-146,-44,131,-87
126,-19,-156,-283,-224,19,68,29,-145,-53,135,-82
136,-9,-141,-268,-214,19,73,34,-145,-63,140,-77
146,0,-126,-253,-204,19,78,39,-146,-73,146,-73
136,9,-136,-263,-204,14,63,24,-127,-72,131,-59
126,19,-136,-263,-204,9,58,19,-107,-72,116,-44
117,29,-136,-263,-204,4,53,14,-88,-73,102,-29
107,39,-136,-263,-204,0,48,9,-68,-73,87,-14
102,34,-126,-244,-200,-9,48,24,-68,-68,85,-17
97,29,-117,-234,-195,-9,48,29,-68,-63,82,-19
92,24,-107,-224,-190,-9,48,34,-68,-58,80,-22
87,19,-97,-214,-185,-9,48,39,-68,-53,77,-24
78,4,-87,-204,-180,-24,34,24,-74,-41,76,-35
68,-9,-87,-195,-175,-29,29,19,-77,-29,72,-43
58,-24,-87,-185,-170,-34,24,14,-82,-17,70,-53
48,-39,-87,-175,-165,-39,19,9,-87,-4,67,-63
53,-34,-73,-165,-156,-34,14,14,-87,-9,70,-60
58,-29,-68,-156,-146,-29,9,19,-87,-14,72,-58
63,-24,-63,-146,-136,-24,4,24,-87,-19,75,-55
68,-19,-58,-136,-126,-19,0,29,-87,-24,77,-53
9,0,-39,-87,-97,-29,0,39,-9,-4,9,-4
0,-9,-48,-97,-117,-48,-9,19,-9,4,4,-9
19,-14,-34,-82,-102,-39,-9,9,-33,-2,26,-23
29,-19,-29,-78,-97,-39,-9,9,-48,-5,38,-33
39,-24,-24,-73,-92,-39,-9,9,-63,-7,51,-43
48,-29,-19,-68,-87,-39,-9,9,-77,-9,62,-53
58,-9,-9,-53,-73,-48,-24,0,-67,-24,62,-38
68,9,0,-39,-68,-48,-29,0,-59,-38,63,-25
78,29,9,-24,-63,-48,-34,0,-49,-53,63,-10
87,48,19,-9,-58,-48,-39,0,-39,-67,63,4
82,58,24,9,-48,-48,-48,-4,-24,-70,53,17
78,58,29,19,-39,-48,-48,-9,-20,-68,49,19
73,58,34,29,-29,-48,-48,-14,-15,-65,44,21
68,58,39,39,-19,-48,-48,-19,-10,-63,39,24
68,48,29,34,-29,-68,-63,-34,-20,-58,44,14
68,39,29,29,-39,-78,-78,-39,-29,-53,48,5
68,29,29,24,-48,-87,-92,-43,-39,-48,53,-5
68,19,29,19,-58,-97,-107,-48,-49,-43,58,-15
48,-4,34,24,-53,-87,-102,-43,-52,-22,50,-28
39,-19,39,29,-48,-87,-97,-39,-58,-10,48,-38
29,-34,43,34,-43,-87,-92,-34,-63,2,46,-48
19,-48,48,39,-39,-87,-87,-29,-67,14,43,-57
14,-34,34,34,-53,-92,-92,-43,-48,10,31,-41
9,-19,29,29,-58,-97,-97,-48,-28,5,18,-23
4,-4,24,24,-63,-102,-102,-53,-8,0,6,-6
0,9,19,19,-68,-107,-107,-58,9,-4,-4,9
19,9,39,34,-53,-102,-107,-48,-10,-14,14,0
29,9,48,39,-48,-97,-107,-48,-20,-19,24,-5
39,9,58,43,-43,-92,-107,-48,-30,-24,34,-10
48,9,68,48,-39,-87,-107,-48,-39,-28,43,-15
34,-4,53,34,-43,-97,-122,-63,-38,-15,36,-21
19,-19,48,29,-48,-107,-126,-68,-38,0,28,-28
4,-34,43,24,-53,-117,-131,-73,-38,15,21,-36
-9,-48,39,19,-58,-126,-136,-78,-39,28,15,-43
19,-19,48,24,-48,-117,-131,-58,-38,0,28,-28
39,0,48,29,-48,-117,-126,-48,-39,-19,39,-19
58,19,48,34,-48,-117,-122,-39,-39,-38,48,-10
78,39,48,39,-48,-117,-117,-29,-39,-58,58,0
53,14,48,39,-58,-107,-107,-24,-39,-33,46,-12
29,-9,48,39,-58,-107,-107,-19,-38,-10,33,-23
4,-34,48,39,-58,-107,-107,-14,-38,15,21,-36
-19,-58,48,39,-58,-107,-107,-9,-39,38,10,-48
-9,-43,29,24,-63,-122,-117,-29,-34,26,12,-38
-9,-29,19,19,-68,-126,-117,-39,-20,19,5,-24
-9,-14,9,14,-73,-131,-117,-48,-5,11,-2,-9
-9,0,0,9,-78,-136,-117,-58,9,4,-9,4
19,19,9,9,-78,-146,-117,-68,0,-19,9,9
39,29,19,9,-78,-146,-117,-68,-10,-34,24,9
58,39,29,9,-78,-146,-117,-68,-19,-48,38,10
78,48,39,9,-78,-146,-117,-68,-30,-63,54,9
68,24,39,14,-68,-131,-107,-63,-44,-46,56,-10
58,9,39,19,-68,-126,-107,-58,-49,-33,53,-20
48,-4,39,24,-68,-122,-107,-53,-52,-22,50,-28
39,-19,39,29,-68,-117,-107,-48,-58,-10,48,-38
29,-29,43,39,-68,-122,-117,-58,-58,0,43,-43
19,-39,48,39,-68,-126,-117,-58,-58,10,38,-48
9,-48,53,39,-68,-131,-117,-58,-57,19,33,-52
0,-58,58,39,-68,-136,-117,-58,-58,29,29,-58
-14,-48,48,29,-73,-141,-131,-68,-34,31,10,-41
-19,-48,48,29,-78,-146,-136,-68,-29,33,5,-38
-24,-48,48,29,-82,-151,-141,-68,-24,36,0,-36
-29,-48,48,29,-87,-156,-146,-68,-19,38,-5,-33
-14,-29,43,24,-97,-146,-136,-73,-15,21,0,-22
-9,-19,39,19,-97,-146,-136,-78,-10,14,0,-14
-4,-9,34,14,-97,-146,-136,-82,-5,6,0,-7
0,0,29,9,-97,-146,-136,-87,0,0,0,0
9,-14,29,9,-97,-136,-126,-82,-23,2,16,-18
19,-19,29,9,-97,-136,-126,-78,-38,0,28,-28
29,-24,29,9,-97,-136,-126,-73,-53,-2,41,-38
39,-29,29,9,-97,-136,-126,-68,-68,-5,53,-48
29,-9,14,-4,-102,-141,-136,-73,-38,-10,33,-23
29,0,9,-9,-107,-146,-136,-78,-29,-14,29,-14
29,9,4,-14,-112,-151,-136,-82,-20,-19,24,-5
29,19,0,-19,-117,-156,-136,-87,-10,-24,19,4
29,14,-4,-19,-117,-151,-131,-87,-15,-21,22,0
29,9,-9,-19,-117,-146,-126,-87,-20,-19,24,-5
29,4,-14,-19,-117,-141,-122,-87,-25,-16,27,-10
29,0,-19,-19,-117,-136,-117,-87,-29,-14,29,-14
9,-9,-14,-9,-102,-136,-126,-78,-18,0,13,-13
-9,-9,-9,-9,-97,-136,-126,-78,0,9,-4,-4
-29,-9,-4,-9,-92,-136,-126,-78,20,19,-24,5
-48,-9,0,-9,-87,-136,-126,-78,39,28,-43,15
-19,0,0,-19,-102,-141,-131,-78,19,9,-19,9
0,0,0,-19,-107,-146,-136,-78,0,0,0,0
19,0,0,-19,-112,-151,-141,-78,-19,-9,19,-9
39,0,0,-19,-117,-156,-146,-78,-39,-19,39,-19
24,-19,0,-9,-117,-161,-156,-92,-43,-2,33,-31
19,-29,0,-9,-117,-165,-156,-97,-48,5,33,-38
14,-39,0,-9,-117,-170,-156,-102,-53,12,33,-46
9,-48,0,-9,-117,-175,-156,-107,-57,19,33,-52
-9,-68,39,19,-97,-156,-195,-107,-59,38,25,-63
-78,-126,58,29,-87,-156,-214,-136,-48,102,-15,-87
-19,-126,58,48,-78,-175,-253,-175,-107,72,44,-116
9,-107,78,78,-58,-175,-283,-195,-116,49,62,-111
-58,-97,126,117,-29,-136,-273,-165,-39,77,-9,-68
-39,-68,136,136,0,-97,-263,-165,-29,53,-5,-48
19,-48,97,107,-19,-107,-263,-185,-67,14,43,-57
-39,-58,68,87,-19,-87,-224,-175,-19,48,-10,-38
-58,-19,78,97,39,9,-107,-126,39,38,-48,10
29,58,78,107,78,117,39,-78,29,-43,0,43
58,126,68,117,126,234,244,-9,68,-92,-5,97
48,136,58,136,204,400,507,78,88,-92,-20,112
58,107,29,136,263,566,771,136,49,-82,4,78
68,146,9,117,283,683,995,195,78,-107,-5,112
175,283,0,117,322,810,1239,292,108,-229,33,195
234,370,19,146,380,956,1522,400,136,-302,49,253
126,331,48,175,448,1083,1766,478,205,-228,-39,268
58,322,48,175,468,1161,1912,497,264,-190,-103,293
107,390,48,175,468,1210,2030,527,283,-248,-88,336
146,448,78,175,458,1220,2098,556,302,-297,-78,375
165,419,97,165,400,1044,1883,497,254,-292,-44,336
204,331,107,185,322,692,1337,351,127,-267,38,229
156,224,107,185,224,312,722,185,68,-190,44,146
39,136,107,175,146,29,234,87,97,-87,-29,116
48,68,146,175,97,-156,-146,19,20,-58,14,44
97,29,165,185,78,-244,-380,-58,-68,-63,82,-19
0,-87,146,185,58,-273,-468,-156,-87,43,43,-87
-97,-214,126,204,68,-263,-468,-185,-117,155,10,-165
-68,-204,136,234,107,-234,-458,-185,-136,136,34,-170
-9,-126,156,283,156,-204,-439,-195,-117,67,54,-121
0,-97,195,361,214,-185,-409,-195,-97,48,48,-97
-39,-117,234,439,283,-146,-390,-214,-78,78,19,-97
-39,-126,244,497,341,-107,-370,-234,-87,82,24,-106
58,-39,302,585,400,-78,-331,-204,-97,-9,77,-68
136,87,380,673,448,-48,-292,-156,-49,-111,92,19
87,126,409,702,458,-48,-283,-175,39,-106,24,82
19,87,439,741,439,-58,-273,-175,68,-53,-24,77
0,39,497,780,400,-78,-263,-156,39,-19,-19,39
-9,29,517,800,351,-117,-273,-156,38,-10,-23,33
9,58,527,849,341,-117,-263,-136,49,-33,-20,53
29,39,556,917,361,-87,-244,-87,10,-34,9,24
-58,-29,575,956,361,-97,-244,-78,29,43,-43,0
-107,-29,566,917,322,-126,-263,-87,78,68,-92,24
-68,-19,536,839,253,-146,-273,-87,49,43,-58,15
29,9,507,751,214,-136,-244,-78,-20,-19,24,-5
87,58,478,673,185,-126,-214,-78,-29,-72,58,14
48,58,419,585,126,-165,-234,-126,10,-53,19,34
0,29,361,497,68,-175,-244,-146,29,-14,-14,29
-9,19,370,448,58,-136,-204,-87,28,-5,-18,23
-19,9,370,380,29,-117,-165,-39,28,5,-23,18
0,9,322,283,-9,-146,-185,-48,9,-4,-4,9
97,48,283,224,-29,-156,-195,-58,-49,-72,73,0
146,48,253,195,-29,-146,-185,-58,-98,-97,122,-25
0,-19,224,136,-58,-146,-165,-78,-19,9,9,-19
-58,-68,195,117,-48,-126,-136,-58,-10,63,-24,-39
-24,-63,170,97,-53,-122,-122,-48,-39,43,7,-51
0,-58,146,78,-58,-117,-117,-39,-58,29,29,-58
24,-53,122,58,-63,-112,-112,-29,-77,14,50,-65
48,-48,97,39,-68,-107,-107,-19,-96,0,72,-72
58,-48,78,14,-82,-122,-122,-29,-106,-5,82,-77
58,-48,58,0,-87,-126,-126,-29,-106,-5,82,-77
58,-48,39,-14,-92,-131,-131,-29,-106,-5,82,-77
58,-48,19,-29,-97,-136,-136,-29,-106,-5,82,-77
68,-39,9,-39,-87,-131,-122,-29,-107,-14,87,-73
78,-39,9,-39,-87,-126,-117,-29,-117,-19,97,-78
87,-39,9,-39,-87,-122,-112,-29,-126,-24,106,-82
97,-39,9,-39,-87,-117,-107,-29,-136,-29,116,-87
63,-63,0,-39,-97,-126,-112,-19,-126,0,94,-94
39,-87,0,-39,-97,-126,-117,-19,-126,24,82,-106
14,-112,0,-39,-97,-126,-122,-19,-126,49,70,-119
-9,-136,0,-39,-97,-126,-126,-19,-127,72,59,-131
14,-97,-9,-43,-112,-126,-117,-19,-111,41,62,-104
39,-68,-9,-48,-117,-126,-117,-19,-107,14,73,-87
63,-39,-9,-53,-122,-126,-117,-19,-102,-12,82,-70
87,-9,-9,-58,-126,-126,-117,-19,-96,-39,91,-52
82,-19,0,-68,-126,-136,-117,-19,-101,-31,91,-60
78,-19,0,-68,-126,-136,-117,-19,-97,-29,87,-58
73,-19,0,-68,-126,-136,-117,-19,-92,-27,82,-55
68,-19,0,-68,-126,-136,-117,-19,-87,-24,77,-53
53,-43,-4,-78,-126,-131,-126,-29,-96,-5,74,-69
48,-68,-9,-78,-126,-126,-126,-39,-116,10,82,-92
43,-92,-14,-78,-126,-122,-126,-48,-135,24,89,-113
39,-117,-19,-78,-126,-117,-126,-58,-156,39,97,-136
24,-126,-19,-87,-136,-126,-136,-48,-150,51,87,-138
9,-126,-19,-87,-136,-136,-136,-39,-135,58,72,-130
-4,-126,-19,-87,-136,-146,-136,-29,-122,65,59,-124
-19,-126,-19,-87,-136,-156,-136,-19,-107,72,44,-116
9,-107,-14,-78,-117,-146,-117,-14,-116,49,62,-111
29,-87,-9,-78,-107,-136,-97,-9,-116,29,72,-101
48,-68,-4,-78,-97,-126,-78,-4,-116,10,82,-92
68,-48,0,-78,-87,-117,-58,0,-116,-10,92,-82
73,-43,-19,-97,-112,-131,-73,-19,-116,-15,94,-79
78,-39,-39,-117,-126,-146,-87,-29,-117,-19,97,-78
82,-34,-58,-136,-141,-161,-102,-39,-116,-24,99,-75
87,-29,-78,-156,-156,-175,-117,-48,-116,-29,101,-72
68,-63,-87,-161,-156,-180,-117,-53,-131,-2,99,-97
58,-87,-97,-165,-156,-185,-117,-58,-145,14,101,-116
48,-112,-107,-170,-156,-190,-117,-63,-160,32,104,-136
39,-136,-117,-175,-156,-195,-117,-68,-175,48,107,-155
53,-126,-117,-180,-165,-195,-117,-68,-179,36,116,-152
58,-117,-117,-185,-165,-195,-117,-68,-175,29,116,-146
63,-107,-117,-190,-165,-195,-117,-68,-170,22,116,-138
68,-97,-117,-195,-165,-195,-117,-68,-165,14,116,-131
78,-126,-126,-204,-165,-209,-122,-78,-204,24,141,-165
78,-146,-126,-204,-165,-214,-126,-87,-224,34,151,-185
78,-165,-126,-204,-165,-219,-131,-97,-243,43,160,-204
78,-185,-126,-204,-165,-224,-136,-107,-263,53,170,-224
68,-170,-126,-204,-165,-219,-131,-97,-238,51,153,-204
68,-156,-126,-204,-165,-214,-126,-97,-224,44,146,-190
68,-141,-126,-204,-165,-209,-122,-97,-209,36,138,-175
68,-126,-126,-204,-165,-204,-117,-97,-194,29,131,-160
73,-117,-126,-214,-156,-190,-107,-92,-190,22,131,-153
78,-107,-126,-214,-156,-185,-97,-87,-185,14,131,-146
82,-97,-126,-214,-156,-180,-87,-82,-179,7,130,-138
87,-87,-126,-214,-156,-175,-78,-78,-174,0,130,-130
92,-87,-122,-204,-156,-156,-58,-73,-179,-2,135,-133
97,-87,-117,-204,-156,-146,-48,-68,-184,-5,140,-135
102,-87,-112,-204,-156,-136,-39,-63,-189,-7,145,-138
107,-87,-107,-204,-156,-126,-29,-58,-194,-10,150,-140
97,-87,-97,-204,-146,-126,-29,-48,-184,-5,140,-135
97,-87,-97,-204,-146,-126,-29,-48,-184,-5,140,-135
97,-87,-97,-204,-146,-126,-29,-48,-184,-5,140,-135
97,-87,-97,-204,-146,-126,-29,-48,-184,-5,140,-135
87,-102,-112,-214,-161,-122,-14,-53,-189,7,138,-145
87,-107,-126,-224,-165,-117,-9,-58,-194,10,140,-150
87,-112,-141,-234,-170,-112,-4,-63,-199,12,143,-155
87,-117,-156,-244,-175,-107,0,-68,-204,15,145,-160
102,-92,-141,-234,-161,-97,9,-58,-194,-5,148,-143
117,-78,-136,-234,-156,-87,19,-48,-195,-19,156,-136
131,-63,-131,-234,-151,-78,29,-39,-194,-34,162,-128
146,-48,-126,-234,-146,-68,39,-29,-194,-49,170,-121
156,-53,-131,-248,-151,-63,43,-34,-209,-51,182,-131
156,-58,-136,-253,-156,-58,48,-39,-214,-49,185,-136
156,-63,-141,-258,-161,-53,53,-43,-219,-46,187,-141
156,-68,-146,-263,-165,-48,58,-48,-224,-44,190,-146
146,-82,-136,-253,-151,-58,58,-43,-228,-32,187,-155
136,-97,-136,-253,-146,-58,58,-39,-233,-19,184,-165
126,-112,-136,-253,-141,-58,58,-34,-238,-7,182,-175
117,-126,-136,-253,-136,-58,58,-29,-243,4,180,-184
141,-102,-151,-273,-141,-39,87,-9,-243,-19,192,-172
156,-78,-156,-283,-146,-29,107,0,-234,-39,195,-156
170,-53,-161,-292,-151,-19,126,9,-223,-58,196,-138
185,-29,-165,-302,-156,-9,146,19,-214,-78,199,-121
165,-39,-175,-302,-156,0,156,34,-204,-63,184,-121
156,-48,-175,-302,-156,0,165,39,-204,-54,180,-126
146,-58,-175,-302,-156,0,175,43,-204,-44,175,-131
136,-68,-175,-302,-156,0,185,48,-204,-34,170,-136
156,-53,-175,-307,-165,-4,175,48,-209,-51,182,-131
175,-39,-175,-312,-165,-9,165,48,-214,-68,194,-126
195,-24,-175,-317,-165,-14,156,48,-219,-85,207,-121
214,-9,-175,-322,-165,-19,146,48,-223,-102,218,-116
190,-29,-170,-307,-156,-9,161,63,-219,-80,204,-124
175,-39,-165,-302,-156,-9,165,68,-214,-68,194,-126
161,-48,-161,-297,-156,-9,170,73,-209,-56,185,-128
146,-58,-156,-292,-156,-9,175,78,-204,-44,175,-131
146,-43,-146,-292,-165,-19,165,68,-189,-51,167,-116
146,-39,-146,-292,-165,-29,156,58,-185,-53,165,-112
146,-34,-146,-292,-165,-39,146,48,-180,-56,163,-107
146,-29,-146,-292,-165,-48,136,39,-175,-58,160,-102
126,-19,-136,-283,-151,-58,136,48,-145,-53,135,-82
117,-19,-126,-273,-146,-58,136,58,-136,-49,126,-77
107,-19,-117,-263,-141,-58,136,68,-126,-44,116,-72
97,-19,-107,-253,-136,-58,136,78,-116,-39,106,-67
117,-9,-102,-248,-136,-68,126,73,-126,-54,121,-67
136,0,-97,-244,-136,-78,117,68,-136,-68,136,-68
156,9,-92,-239,-136,-87,107,63,-147,-82,151,-69
175,19,-87,-234,-136,-97,97,58,-156,-97,165,-68
161,19,-78,-224,-136,-112,78,43,-142,-90,151,-61
146,19,-78,-224,-136,-117,68,39,-127,-82,136,-54
131,19,-78,-224,-136,-122,58,34,-112,-75,121,-46
117,19,-78,-224,-136,-126,48,29,-98,-68,107,-39
117,-4,-68,-204,-117,-141,34,29,-121,-56,119,-62
117,-29,-58,-185,-107,-146,19,29,-146,-44,131,-87
117,-53,-48,-165,-97,-151,4,29,-170,-32,143,-111
117,-78,-39,-146,-87,-156,-9,29,-195,-19,156,-136
122,-68,-34,-141,-78,-161,-19,19,-190,-27,156,-129
126,-58,-29,-136,-78,-165,-29,9,-184,-34,155,-121
131,-48,-24,-131,-78,-170,-39,0,-179,-41,155,-113
136,-39,-19,-126,-78,-175,-48,-9,-175,-48,155,-107
131,-48,-29,-122,-78,-180,-53,-14,-179,-41,155,-113
126,-48,-39,-117,-78,-185,-58,-19,-174,-39,150,-111
122,-48,-48,-112,-78,-190,-63,-24,-170,-37,146,-109
117,-48,-58,-107,-78,-195,-68,-29,-165,-34,141,-106
126,-39,-48,-102,-63,-190,-63,-14,-165,-43,145,-102
136,-29,-39,-97,-58,-185,-58,-9,-165,-53,150,-97
146,-19,-29,-92,-53,-180,-53,-4,-165,-63,155,-92
156,-9,-19,-87,-48,-175,-48,0,-165,-73,160,-87
170,9,0,-78,-39,-175,-53,-14,-161,-89,165,-76
185,29,9,-68,-39,-175,-58,-19,-156,-107,170,-63
200,48,19,-58,-39,-175,-63,-24,-152,-124,176,-52
214,68,29,-48,-39,-175,-68,-29,-146,-141,180,-39
195,48,4,-63,-48,-185,-92,-48,-147,-121,171,-49
185,29,-9,-68,-58,-195,-107,-58,-156,-107,170,-63
175,9,-24,-73,-68,-204,-122,-68,-166,-92,170,-78
165,-9,-39,-78,-78,-214,-136,-78,-174,-78,169,-91
131,-34,-39,-87,-78,-224,-136,-87,-165,-48,148,-99
107,-58,-39,-87,-78,-224,-136,-87,-165,-24,136,-111
82,-82,-39,-87,-78,-224,-136,-87,-164,0,123,-123
58,-107,-39,-87,-78,-224,-136,-87,-165,24,111,-136
78,-92,-24,-82,-63,-209,-131,-78,-170,7,124,-131
87,-78,-19,-78,-58,-204,-126,-68,-165,-4,126,-121
97,-63,-14,-73,-53,-200,-122,-58,-160,-17,128,-111
107,-48,-9,-68,-48,-195,-117,-48,-155,-29,131,-101
117,-39,-19,-68,-58,-204,-126,-48,-156,-39,136,-97
117,-29,-19,-68,-58,-204,-136,-48,-146,-44,131,-87
117,-19,-19,-68,-58,-204,-146,-48,-136,-49,126,-77
117,-9,-19,-68,-58,-204,-156,-48,-126,-54,121,-67
126,0,-14,-68,-53,-200,-146,-58,-126,-63,126,-63
136,9,-9,-68,-48,-195,-136,-58,-127,-72,131,-59
146,19,-4,-68,-43,-190,-126,-58,-127,-82,136,-54
156,29,0,-68,-39,-185,-117,-58,-127,-92,141,-49
131,19,-14,-82,-48,-195,-122,-68,-112,-75,121,-46
107,9,-19,-87,-58,-195,-126,-68,-98,-58,102,-44
82,0,-24,-92,-68,-195,-131,-68,-82,-41,82,-41
58,-9,-29,-97,-78,-195,-136,-68,-67,-24,62,-38
73,0,-29,-87,-73,-185,-126,-58,-73,-36,73,-36
87,0,-29,-87,-68,-185,-126,-58,-87,-43,87,-43
102,0,-29,-87,-63,-185,-126,-58,-102,-51,102,-51
117,0,-29,-87,-58,-185,-126,-58,-117,-58,117,-58
97,-9,-24,-78,-48,-195,-136,-58,-106,-44,101,-57
87,-9,-19,-78,-48,-204,-146,-58,-96,-39,91,-52
78,-9,-14,-78,-48,-214,-156,-58,-87,-34,82,-48
68,-9,-9,-78,-48,-224,-165,-58,-77,-29,72,-43
82,-4,-19,-73,-39,-219,-151,-58,-86,-39,84,-45
87,0,-19,-68,-39,-214,-146,-58,-87,-43,87,-43
92,4,-19,-63,-39,-209,-141,-58,-88,-48,90,-42
97,9,-19,-58,-39,-204,-136,-58,-88,-53,92,-39
82,0,-9,-68,-53,-200,-131,-63,-82,-41,82,-41
68,-9,-9,-78,-58,-195,-126,-68,-77,-29,72,-43
53,-19,-9,-87,-63,-190,-122,-73,-72,-17,62,-45
39,-29,-9,-97,-68,-185,-117,-78,-68,-5,53,-48
48,-34,-9,-92,-63,-195,-117,-63,-82,-7,65,-58
48,-39,-9,-87,-58,-195,-117,-58,-87,-4,67,-63
48,-43,-9,-82,-53,-195,-117,-53,-91,-2,69,-67
48,-48,-9,-78,-48,-195,-117,-48,-96,0,72,-72
43,-29,0,-78,-48,-190,-112,-43,-72,-7,57,-50
39,-19,0,-78,-48,-185,-107,-39,-58,-10,48,-38
34,-9,0,-78,-48,-180,-102,-34,-43,-12,38,-26
29,0,0,-78,-48,-175,-97,-29,-29,-14,29,-14
19,-29,0,-78,-58,-190,-112,-29,-48,5,33,-38
9,-48,0,-78,-58,-195,-117,-29,-57,19,33,-52
0,-68,0,-78,-58,-200,-122,-29,-68,34,34,-68
-9,-87,0,-78,-58,-204,-126,-29,-78,48,34,-82
19,-58,24,-63,-34,-195,-117,-14,-77,19,48,-67
39,-39,39,-48,-19,-185,-107,-9,-78,0,58,-58
58,-19,53,-34,-4,-175,-97,-4,-77,-19,67,-48
78,0,68,-19,9,-165,-87,0,-78,-39,78,-39
78,-14,58,-34,-4,-170,-87,-14,-92,-32,85,-53
78,-19,48,-39,-9,-175,-87,-19,-97,-29,87,-58
78,-24,39,-43,-14,-180,-87,-24,-102,-27,90,-63
78,-29,29,-48,-19,-185,-87,-29,-107,-24,92,-68
87,-19,14,-58,-34,-185,-92,-34,-106,-34,96,-62
87,-9,9,-68,-39,-185,-97,-39,-96,-39,91,-52
87,0,4,-78,-43,-185,-102,-43,-87,-43,87,-43
87,9,0,-87,-48,-185,-107,-48,-78,-48,82,-34
82,14,-9,-78,-39,-185,-102,-48,-68,-48,75,-27
78,19,-9,-78,-39,-185,-97,-48,-59,-48,68,-20
73,24,-9,-78,-39,-185,-92,-48,-49,-48,61,-12
68,29,-9,-78,-39,-185,-87,-48,-39,-48,53,-5
82,14,4,-78,-43,-195,-92,-48,-68,-48,75,-27
87,9,9,-78,-48,-195,-97,-48,-78,-48,82,-34
92,4,14,-78,-53,-195,-102,-48,-88,-48,90,-42
97,0,19,-78,-58,-195,-107,-48,-97,-48,97,-48
97,9,29,-73,-48,-195,-97,-43,-88,-53,92,-39
97,9,39,-68,-48,-195,-97,-39,-88,-53,92,-39
97,9,48,-63,-48,-195,-97,-34,-88,-53,92,-39
97,9,58,-58,-48,-195,-97,-29,-88,-53,92,-39
97,24,34,-63,-63,-200,-107,-39,-73,-60,85,-24
97,29,19,-68,-68,-204,-117,-48,-68,-63,82,-19
97,34,4,-73,-73,-209,-126,-58,-63,-65,80,-14
97,39,-9,-78,-78,-214,-136,-68,-58,-68,77,-9
92,29,0,-68,-63,-209,-131,-58,-63,-60,77,-17
87,29,0,-68,-58,-204,-126,-48,-58,-58,72,-14
82,29,0,-68,-53,-200,-122,-39,-53,-55,67,-12
78,29,0,-68,-48,-195,-117,-29,-49,-53,63,-10
97,48,4,-78,-53,-185,-107,-34,-49,-72,73,0
107,58,9,-78,-58,-185,-107,-39,-49,-82,78,4
117,68,14,-78,-63,-185,-107,-43,-49,-92,83,9
126,78,19,-78,-68,-185,-107,-48,-48,-102,87,15
136,58,19,-78,-58,-165,-107,-48,-78,-97,107,-10
117,29,19,-78,-58,-175,-107,-58,-88,-73,102,-29
156,29,29,-78,-48,-165,-87,-39,-127,-92,141,-49
165,39,29,-87,-48,-146,-68,-29,-126,-102,145,-43
97,39,0,-87,-58,-185,-97,-39,-58,-68,77,-9
73,19,-9,-97,-63,-195,-112,-48,-54,-46,63,-17
58,9,-9,-97,-68,-195,-117,-58,-49,-33,53,-20
43,0,-9,-97,-73,-195,-122,-68,-43,-21,43,-21
29,-9,-9,-97,-78,-195,-126,-78,-38,-10,33,-23
34,-9,4,-97,-78,-204,-136,-73,-43,-12,38,-26
39,-9,9,-97,-78,-204,-136,-68,-48,-15,43,-28
43,-9,14,-97,-78,-204,-136,-63,-52,-17,47,-30
48,-9,19,-97,-78,-204,-136,-58,-57,-19,52,-33
68,4,9,-107,-82,-204,-126,-48,-64,-36,66,-30
78,9,9,-107,-87,-204,-126,-48,-69,-43,73,-30
87,14,9,-107,-92,-204,-126,-48,-73,-50,80,-29
97,19,9,-107,-97,-204,-126,-48,-78,-58,87,-29
107,29,-4,-117,-97,-209,-141,-63,-78,-68,92,-24
107,29,-9,-117,-97,-214,-146,-68,-78,-68,92,-24
107,29,-14,-117,-97,-219,-151,-73,-78,-68,92,-24
107,29,-19,-117,-97,-224,-156,-78,-78,-68,92,-24
107,14,-9,-107,-107,-214,-141,-73,-93,-60,100,-39
126,9,-14,-122,-107,-219,-136,-78,-117,-67,121,-54
87,-24,-14,-122,-107,-234,-146,-92,-111,-31,99,-67
19,-58,-14,-126,-102,-234,-131,-87,-77,19,48,-67
14,-24,0,-126,-102,-209,-126,-87,-38,5,26,-31
14,-24,0,-141,-117,-219,-141,-107,-38,5,26,-31
43,-19,-9,-141,-122,-229,-161,-122,-62,-12,52,-40
4,-9,-9,-141,-122,-209,-165,-112,-13,2,8,-11
-9,-9,0,-141,-122,-219,-151,-117,0,9,-4,-4
29,0,9,-141,-117,-224,-151,-102,-29,-14,29,-14
43,-24,9,-141,-117,-229,-156,-112,-67,-9,55,-45
14,-24,0,-131,-117,-248,-175,-136,-38,5,26,-31
0,-29,0,-122,-107,-229,-165,-112,-29,14,14,-29
24,-19,9,-131,-97,-209,-146,-82,-43,-2,33,-31
4,-43,4,-146,-97,-200,-117,-68,-47,19,25,-45
-14,-48,-4,-146,-97,-190,-117,-63,-34,31,10,-41
-14,-29,-9,-146,-107,-204,-156,-73,-15,21,0,-22
-14,-34,-9,-146,-112,-219,-175,-97,-20,24,3,-27
0,-29,-14,-141,-112,-224,-185,-117,-29,14,14,-29
9,-29,-19,-136,-117,-224,-185,-107,-38,10,23,-33
24,-14,-14,-122,-102,-209,-170,-87,-38,-5,31,-26
14,-4,-9,-122,-97,-209,-156,-82,-18,-5,16,-11
29,9,0,-117,-87,-190,-136,-73,-20,-19,24,-5
68,24,4,-102,-73,-170,-112,-63,-44,-46,56,-10
68,-4,-9,-102,-97,-180,-131,-68,-72,-32,70,-38
39,-34,-19,-112,-87,-195,-131,-73,-73,-2,56,-53
29,-9,-4,-122,-78,-175,-122,-68,-38,-10,33,-23
39,-4,-29,-131,-87,-185,-122,-68,-43,-17,41,-23
63,29,-14,-122,-78,-165,-112,-63,-34,-46,48,-2
97,34,0,-112,-63,-156,-107,-63,-63,-65,80,-14
97,29,14,-102,-53,-146,-97,-58,-68,-63,82,-19
131,34,29,-87,-43,-131,-87,-63,-97,-82,114,-31
102,73,24,-97,-58,-141,-102,-63,-29,-87,65,22
53,48,9,-107,-78,-151,-117,-78,-5,-50,29,21
34,63,4,-112,-68,-151,-107,-58,29,-48,2,46
73,112,24,-117,-68,-136,-97,-43,39,-92,17,75
53,68,34,-107,-58,-131,-102,-39,15,-60,19,41
9,19,34,-97,-53,-131,-102,-34,10,-14,0,14
9,-4,34,-87,-53,-136,-97,-29,-13,-2,11,-8
14,-14,34,-87,-43,-141,-92,-19,-28,0,21,-21
24,-9,34,-97,-58,-146,-102,-24,-33,-7,28,-21
24,-14,34,-92,-58,-141,-107,-24,-38,-5,31,-26
0,-24,39,-92,-53,-146,-97,-24,-24,12,12,-24
9,-19,39,-92,-53,-151,-117,-29,-28,5,18,-23
29,19,34,-102,-48,-151,-117,-53,-10,-24,19,4
63,43,29,-102,-53,-151,-107,-39,-20,-53,41,11
24,29,24,-107,-63,-156,-122,-58,5,-26,9,17
0,14,4,-117,-78,-156,-131,-73,14,-7,-7,14
19,24,4,-107,-68,-165,-131,-68,5,-21,7,14
4,43,19,-97,-68,-165,-122,-63,39,-23,-17,41
-19,43,19,-97,-68,-161,-122,-68,62,-12,-40,52
9,39,19,-102,-63,-161,-122,-73,30,-24,-10,34
-9,4,9,-112,-73,-151,-122,-73,13,2,-11,8
-43,-9,4,-112,-73,-170,-122,-63,34,26,-38,12
4,0,4,-112,-82,-175,-122,-73,-4,-2,4,-2
29,9,4,-112,-82,-180,-117,-73,-20,-19,24,-5
34,19,48,-87,-63,-156,-97,-63,-15,-26,24,2
58,14,68,-78,-48,-136,-92,-48,-44,-36,51,-15
122,58,87,-63,-24,-117,-82,-29,-64,-90,93,-3
170,82,102,-53,-9,-97,-53,-9,-88,-126,129,-3
122,53,87,-63,-24,-102,-82,-24,-69,-87,95,-8
102,53,48,-82,-43,-131,-112,-43,-49,-77,75,2
73,82,34,-92,-48,-141,-122,-48,9,-77,32,45
87,73,14,-97,-48,-146,-131,-48,-14,-80,50,29
68,53,-4,-112,-58,-156,-141,-63,-15,-60,41,19
39,34,-9,-117,-63,-151,-141,-78,-5,-36,22,14
24,34,-4,-112,-63,-141,-141,-73,10,-29,7,22
43,34,-4,-117,-63,-136,-136,-68,-9,-38,26,12
63,34,14,-107,-43,-131,-131,-43,-29,-48,46,2
58,4,43,-82,-34,-117,-122,-24,-54,-31,56,-25
58,4,53,-73,-29,-122,-102,-29,-54,-31,56,-25
73,4,48,-78,-39,-136,-126,-34,-69,-38,71,-32
24,4,34,-97,-48,-146,-136,-48,-20,-14,22,-8
-4,0,29,-102,-53,-131,-122,-43,4,2,-4,2
-24,-9,24,-112,-63,-131,-122,-48,15,16,-19,3
-58,-9,9,-126,-73,-141,-122,-58,49,33,-53,20
-43,-9,4,-126,-78,-141,-122,-53,34,26,-38,12
-39,-48,9,-136,-73,-141,-122,-53,-9,43,-15,-28
-58,-92,24,-126,-68,-141,-117,-48,-34,75,-12,-63
-82,-82,39,-112,-53,-141,-97,-34,0,82,-41,-41
-73,-82,9,-122,-73,-151,-112,-53,-9,77,-32,-45
-63,-34,19,-151,-82,-156,-131,-78,29,48,-46,-2
-63,-19,14,-146,-73,-146,-122,-78,44,41,-53,12
-78,-4,14,-136,-68,-146,-112,-68,74,41,-76,35
-68,29,0,-141,-82,-165,-122,-63,97,19,-82,63
-34,24,-19,-151,-92,-170,-131,-63,58,5,-46,41
-43,-9,14,-112,-53,-117,-87,-34,34,26,-38,12
-97,-14,68,-68,-4,-92,-58,-24,83,55,-90,34
-63,4,58,-78,-29,-146,-126,-68,67,29,-65,35
-34,-29,19,-97,-53,-195,-209,-117,5,31,-19,-12
-97,-107,34,-68,-29,-185,-244,-131,-10,102,-43,-58
-122,-146,53,-53,-4,-161,-263,-146,-24,134,-49,-85
-102,-131,82,-39,24,-126,-263,-146,-29,116,-36,-80
-92,-78,102,9,68,-73,-204,-136,14,85,-53,-32
-92,-43,82,24,87,-58,-161,-136,49,67,-70,3
-102,-58,53,-4,73,-43,-126,-136,44,80,-73,-7
-112,-43,63,-19,97,29,-19,-97,69,77,-90,13
-136,4,63,-9,122,126,141,-34,140,66,-138,72
