I,II,V1,V2,V3,V4,V5,V6,III,aVR,aVL,aVF
29,19,126,156,-29,-97,1932,29,-10,-24,19,4
29,19,126,156,-29,-97,1932,29,-10,-24,19,4
29,19,126,156,-29,-97,1932,29,-10,-24,19,4
29,19,126,156,-29,-97,1932,29,-10,-24,19,4
9,-4,122,151,-43,-107,1937,24,-13,-2,11,-8
-9,-19,117,146,-48,-107,1942,19,-10,14,0,-14
-29,-34,112,141,-53,-107,1947,14,-5,31,-12,-19
-48,-48,107,136,-58,-107,1952,9,0,48,-24,-24
-34,-34,117,141,-48,-102,1961,19,0,34,-17,-17
-19,-19,117,146,-39,-97,1961,19,0,19,-9,-9
-4,-4,117,151,-29,-92,1961,19,0,4,-2,-2
9,9,117,156,-19,-87,1961,19,0,-9,4,4
14,9,107,146,-19,-78,1966,29,-5,-11,9,2
19,9,107,146,-19,-78,1971,29,-10,-14,14,0
24,9,107,146,-19,-78,1976,29,-15,-16,19,-3
29,9,107,146,-19,-78,1981,29,-20,-19,24,-5
48,24,117,156,-9,-87,1991,24,-24,-36,36,0
58,29,117,156,-9,-87,1991,19,-29,-43,43,0
68,34,117,156,-9,-87,1991,14,-34,-51,51,0
78,39,117,156,-9,-87,1991,9,-39,-58,58,0
63,14,102,151,-14,-97,1995,4,-49,-38,56,-17
48,0,97,146,-19,-97,2000,0,-48,-24,48,-24
34,-14,92,141,-24,-97,2005,-4,-48,-10,41,-31
19,-29,87,136,-29,-97,2010,-9,-48,5,33,-38
19,-29,87,126,-19,-87,2015,-19,-48,5,33,-38
19,-29,87,126,-19,-87,2020,-19,-48,5,33,-38
19,-29,87,126,-19,-87,2025,-19,-48,5,33,-38
19,-29,87,126,-19,-87,2030,-19,-48,5,33,-38
58,-4,97,141,-9,-73,2039,-4,-62,-27,60,-33
87,19,97,146,0,-58,2039,0,-68,-53,77,-24
117,43,97,151,9,-43,2039,4,-74,-80,95,-15
146,68,97,156,19,-29,2039,9,-78,-107,112,-5
131,43,87,146,9,-43,2044,0,-88,-87,109,-22
117,29,87,146,9,-48,2049,-9,-88,-73,102,-29
102,14,87,146,9,-53,2054,-19,-88,-58,95,-37
87,0,87,146,9,-58,2059,-29,-87,-43,87,-43
107,9,73,136,19,-58,2064,-29,-98,-58,102,-44
126,9,68,136,19,-58,2069,-29,-117,-67,121,-54
146,9,63,136,19,-58,2074,-29,-137,-77,141,-64
165,9,58,136,19,-58,2078,-29,-156,-87,160,-73
151,0,58,136,19,-58,2088,-34,-151,-75,151,-75
146,0,58,136,19,-58,2088,-39,-146,-73,146,-73
141,0,58,136,19,-58,2088,-43,-141,-70,141,-70
136,0,58,136,19,-58,2088,-48,-136,-68,136,-68
141,4,48,146,39,-48,2093,-43,-137,-72,139,-66
146,9,48,146,48,-39,2098,-39,-137,-77,141,-64
151,14,48,146,58,-29,2103,-34,-137,-82,144,-61
156,19,48,146,68,-19,2108,-29,-137,-87,146,-59
185,29,58,156,82,-4,2113,-19,-156,-107,170,-63
204,39,58,156,87,0,2117,-19,-165,-121,184,-63
224,48,58,156,92,4,2122,-19,-176,-136,200,-64
244,58,58,156,97,9,2127,-19,-186,-151,215,-64
229,48,43,146,97,0,2137,-29,-181,-138,205,-66
224,39,29,136,97,0,2137,-29,-185,-131,204,-73
219,29,14,126,97,0,2137,-29,-190,-124,204,-80
214,19,0,117,97,0,2137,-29,-195,-116,204,-88
248,48,14,131,112,14,2142,-14,-200,-148,224,-76
273,68,19,136,126,29,2147,-9,-205,-170,239,-68
297,87,24,141,141,43,2152,-4,-210,-192,253,-61
322,107,29,146,156,58,2156,0,-215,-214,268,-54
302,87,19,136,141,48,2161,0,-215,-194,258,-64
292,68,9,126,136,48,2166,0,-224,-180,258,-78
283,48,0,117,131,48,2171,0,-235,-165,259,-93
273,29,-9,107,126,48,2176,0,-244,-151,258,-107
283,19,-29,92,122,39,2181,-14,-264,-151,273,-122
283,19,-39,78,117,39,2186,-19,-264,-151,273,-122
283,19,-48,63,112,39,2191,-24,-264,-151,273,-122
283,19,-58,48,107,39,2196,-29,-264,-151,273,-122
307,43,-53,58,117,43,2205,-24,-264,-175,285,-110
331,68,-48,58,117,48,2205,-19,-263,-199,297,-97
356,92,-43,58,117,53,2205,-14,-264,-224,310,-86
380,117,-39,58,117,58,2205,-9,-263,-248,321,-73
361,102,-43,48,102,43,2210,-19,-259,-231,310,-78
351,87,-48,39,97,39,2215,-29,-264,-219,307,-88
341,73,-53,29,92,34,2220,-39,-268,-207,304,-97
331,58,-58,19,87,29,2225,-48,-273,-194,302,-107
307,24,-78,4,63,14,2230,-68,-283,-165,295,-129
283,0,-87,-9,48,0,2235,-78,-283,-141,283,-141
258,-24,-97,-24,34,-14,2239,-87,-282,-117,270,-153
234,-48,-107,-39,19,-29,2244,-97,-282,-93,258,-165
278,-9,-97,-29,34,-19,2249,-87,-287,-134,282,-148
312,29,-87,-19,39,-9,2254,-78,-283,-170,297,-127
346,68,-78,-9,43,0,2259,-68,-278,-207,312,-105
380,107,-68,0,48,9,2264,-58,-273,-243,326,-83
356,78,-78,-9,29,-9,2269,-73,-278,-217,317,-100
331,58,-78,-19,19,-19,2274,-78,-273,-194,302,-107
307,39,-78,-29,9,-29,2278,-82,-268,-173,287,-114
283,19,-78,-39,0,-39,2283,-87,-264,-151,273,-122
292,39,-68,-29,0,-39,2293,-78,-253,-165,272,-107
302,48,-68,-29,0,-39,2293,-78,-254,-175,278,-103
312,58,-68,-29,0,-39,2293,-78,-254,-185,283,-98
322,68,-68,-29,0,-39,2293,-78,-254,-195,288,-93
297,53,-78,-34,-9,-53,2298,-87,-244,-175,270,-95
283,39,-78,-39,-19,-58,2303,-87,-244,-161,263,-102
268,24,-78,-43,-29,-63,2308,-87,-244,-146,256,-110
253,9,-78,-48,-39,-68,2313,-87,-244,-131,248,-117
263,14,-73,-39,-39,-68,2318,-78,-249,-138,256,-117
263,19,-68,-39,-39,-68,2322,-78,-244,-141,253,-112
263,24,-63,-39,-39,-68,2327,-78,-239,-143,251,-107
263,29,-58,-39,-39,-68,2332,-78,-234,-146,248,-102
244,9,-58,-48,-53,-82,2337,-87,-235,-126,239,-113
224,0,-58,-48,-58,-87,2342,-87,-224,-112,224,-112
204,-9,-58,-48,-63,-92,2347,-87,-213,-97,208,-111
185,-19,-58,-48,-68,-97,2352,-87,-204,-83,194,-111
204,-4,-48,-39,-68,-97,2357,-78,-208,-100,206,-106
224,9,-48,-39,-68,-97,2361,-78,-215,-116,219,-103
244,24,-48,-39,-68,-97,2366,-78,-220,-134,232,-98
263,39,-48,-39,-68,-97,2371,-78,-224,-151,243,-92
239,24,-43,-29,-78,-97,2376,-68,-215,-131,227,-95
224,19,-39,-29,-78,-97,2381,-68,-205,-121,214,-93
209,14,-34,-29,-78,-97,2386,-68,-195,-111,202,-90
195,9,-29,-29,-78,-97,2391,-68,-186,-102,190,-88
204,19,-19,-19,-78,-97,2396,-58,-185,-111,194,-83
204,19,-19,-19,-78,-97,2400,-58,-185,-111,194,-83
204,19,-19,-19,-78,-97,2405,-58,-185,-111,194,-83
204,19,-19,-19,-78,-97,2410,-58,-185,-111,194,-83
200,4,-29,-24,-82,-112,2415,-63,-196,-102,198,-96
195,0,-29,-29,-87,-117,2420,-68,-195,-97,195,-97
190,-4,-29,-34,-92,-122,2425,-73,-194,-93,192,-99
185,-9,-29,-39,-97,-126,2430,-78,-194,-88,189,-101
161,-14,-34,-43,-102,-141,2435,-87,-175,-73,168,-94
146,-19,-39,-48,-107,-146,2440,-87,-165,-63,155,-92
131,-24,-43,-53,-112,-151,2444,-87,-155,-53,143,-89
117,-29,-48,-58,-117,-156,2449,-87,-146,-44,131,-87
136,0,-34,-48,-112,-151,2454,-73,-136,-68,136,-68
156,19,-19,-39,-107,-146,2459,-68,-137,-87,146,-59
175,39,-4,-29,-102,-141,2464,-63,-136,-107,155,-48
195,58,9,-19,-97,-136,2469,-58,-137,-126,166,-39
175,48,0,-24,-102,-146,2474,-68,-127,-111,151,-39
165,39,0,-29,-107,-146,2479,-68,-126,-102,145,-43
156,29,0,-34,-112,-146,2483,-68,-127,-92,141,-49
146,19,0,-39,-117,-146,2488,-68,-127,-82,136,-54
131,9,0,-29,-117,-156,2493,-58,-122,-70,126,-56
117,0,0,-29,-117,-156,2498,-58,-117,-58,117,-58
102,-9,0,-29,-117,-156,2503,-58,-111,-46,106,-60
87,-19,0,-29,-117,-156,2508,-58,-106,-34,96,-62
63,-29,-14,-34,-126,-161,2513,-63,-92,-17,77,-60
48,-39,-19,-39,-126,-165,2518,-68,-87,-4,67,-63
34,-48,-24,-43,-126,-170,2522,-73,-82,7,58,-65
19,-58,-29,-48,-126,-175,2527,-78,-77,19,48,-67
43,-39,-9,-39,-117,-161,2532,-63,-82,-2,62,-60
58,-19,0,-29,-107,-156,2537,-58,-77,-19,67,-48
73,0,9,-19,-97,-151,2542,-53,-73,-36,73,-36
87,19,19,-9,-87,-146,2547,-48,-68,-53,77,-24
92,29,24,-4,-78,-141,2552,-39,-63,-60,77,-17
97,39,29,0,-78,-136,2557,-39,-58,-68,77,-9
102,48,34,4,-78,-131,2562,-39,-54,-75,78,-3
107,58,39,9,-78,-126,2566,-39,-49,-82,78,4
82,39,34,0,-87,-131,2571,-53,-43,-60,62,-2
58,19,29,0,-87,-136,2576,-58,-39,-38,48,-10
34,0,24,0,-87,-141,2581,-63,-34,-17,34,-17
9,-19,19,0,-87,-146,2586,-68,-28,5,18,-23
0,-29,24,4,-78,-136,2591,-68,-29,14,14,-29
0,-29,29,9,-78,-136,2596,-68,-29,14,14,-29
0,-29,34,14,-78,-136,2601,-68,-29,14,14,-29
0,-29,39,19,-78,-136,2605,-68,-29,14,14,-29
14,-4,43,24,-63,-131,2610,-53,-18,-5,16,-11
29,9,48,29,-58,-126,2615,-48,-20,-19,24,-5
43,24,53,34,-53,-122,2620,-43,-19,-33,31,2
58,39,58,39,-48,-117,2625,-39,-19,-48,38,10
68,53,78,48,-39,-107,2630,-24,-15,-60,41,19
78,68,87,58,-29,-97,2635,-19,-10,-73,44,29
87,82,97,68,-19,-87,2640,-14,-5,-84,46,38
97,97,107,78,-9,-78,2644,-9,0,-97,48,48
87,87,102,78,-9,-78,2649,-19,0,-87,43,43
87,78,97,78,-9,-78,2654,-19,-9,-82,48,34
87,68,92,78,-9,-78,2659,-19,-19,-77,53,24
102,68,97,82,-4,-73,2664,-14,-34,-85,68,17
78,63,102,82,-4,-78,2669,-24,-15,-70,46,24
73,48,107,92,-4,-73,2684,-14,-25,-60,49,11
53,34,107,97,-9,-63,2688,-14,-19,-43,36,7
34,9,107,97,-14,-73,2688,-19,-25,-21,29,-8
4,-4,92,82,-29,-82,2693,-34,-8,0,6,-6
-9,-19,82,73,-29,-82,2693,-34,-10,14,0,-14
-9,-9,73,68,-29,-82,2698,-34,0,9,-4,-4
19,4,68,68,-29,-78,2703,-34,-15,-11,17,-5
68,24,68,68,-24,-63,2718,-19,-44,-46,56,-10
58,34,68,68,-9,-63,2723,-14,-24,-46,41,5
63,43,68,73,-14,-63,2727,-14,-20,-53,41,11
53,48,68,73,-14,-63,2723,-14,-5,-50,29,21
63,53,53,63,-24,-63,2732,-4,-10,-58,36,21
82,58,43,58,-24,-68,2742,-4,-24,-70,53,17
112,78,43,58,-24,-68,2742,-4,-34,-95,73,22
131,92,43,53,-24,-63,2742,0,-39,-111,85,26
141,107,48,58,-19,-53,2757,14,-34,-124,87,36
141,112,39,53,-14,-39,2766,9,-29,-126,85,41
131,92,29,43,-19,-48,2771,9,-39,-111,85,26
122,78,29,48,-24,-48,2757,9,-44,-100,83,17
156,87,19,39,-34,-63,2762,0,-69,-121,112,9
146,97,9,34,-39,-68,2771,0,-49,-121,97,24
141,87,9,34,-39,-68,2786,0,-54,-114,97,16
141,87,14,34,-39,-68,2796,0,-54,-114,97,16
131,63,14,39,-34,-73,2796,-4,-68,-97,99,-2
117,58,9,34,-43,-73,2796,-9,-59,-87,88,0
117,58,9,34,-43,-73,2806,-9,-59,-87,88,0
117,58,9,34,-39,-68,2815,-9,-59,-87,88,0
117,53,19,29,-48,-73,2830,-9,-64,-85,90,-5
112,48,24,34,-48,-78,2825,-14,-64,-80,88,-8
112,48,19,34,-53,-82,2830,-19,-64,-80,88,-8
107,43,14,34,-58,-87,2835,-24,-64,-75,85,-10
73,14,14,24,-63,-92,2830,-43,-59,-43,66,-22
68,14,14,24,-68,-92,2840,-43,-54,-41,61,-20
63,14,14,24,-73,-97,2859,-39,-49,-38,56,-17
53,14,14,24,-73,-102,2869,-39,-39,-33,46,-12
43,4,4,34,-87,-107,2869,-48,-39,-23,41,-17
14,-14,4,24,-102,-122,2859,-58,-28,0,21,-21
-9,-43,4,19,-102,-126,2869,-73,-34,26,12,-38
-14,-53,0,14,-107,-126,2888,-73,-39,33,12,-46
-34,-68,0,0,-112,-131,2893,-82,-34,51,0,-51
-53,-82,0,0,-117,-141,2898,-87,-29,67,-12,-55
-58,-97,-4,0,-117,-146,2903,-87,-39,77,-9,-68
-53,-92,-4,4,-112,-146,2908,-82,-39,72,-7,-65
-9,-43,14,14,-102,-122,2918,-73,-34,26,12,-38
34,0,29,29,-92,-112,2928,-53,-34,-17,34,-17
68,29,39,39,-82,-102,2928,-43,-39,-48,53,-5
97,48,48,43,-78,-102,2928,-43,-49,-72,73,0
97,53,53,48,-73,-92,2937,-39,-44,-75,70,4
82,58,53,53,-68,-92,2942,-29,-24,-70,53,17
68,68,48,58,-63,-92,2952,-19,0,-68,34,34
63,78,48,63,-63,-92,2957,-14,15,-70,24,46
48,53,43,43,-82,-107,2967,-39,5,-50,21,29
39,34,39,39,-87,-117,2967,-43,-5,-36,22,14
29,9,34,34,-87,-126,2976,-48,-20,-19,24,-5
14,-14,29,29,-87,-136,2996,-53,-28,0,21,-21
0,-24,19,19,-102,-141,3006,-63,-24,12,12,-24
-4,-29,14,14,-107,-141,3001,-63,-25,16,10,-27
-9,-24,9,4,-112,-146,3001,-63,-15,16,3,-19
-24,-48,4,0,-126,-151,3001,-63,-24,36,0,-36
-9,-29,19,9,-117,-141,3010,-48,-20,19,5,-24
9,0,29,19,-107,-131,3020,-43,-9,-4,9,-4
34,39,43,29,-92,-117,3030,-34,5,-36,14,22
48,68,53,43,-82,-107,3045,-29,20,-58,14,44
34,24,48,39,-97,-122,3045,-43,-10,-29,22,7
0,-9,39,24,-107,-136,3045,-53,-9,4,4,-9
-14,-34,29,14,-122,-146,3040,-63,-20,24,3,-27
-29,-58,19,9,-126,-151,3040,-68,-29,43,0,-43
-43,-58,9,4,-112,-156,3054,-68,-15,50,-14,-36
-29,-43,14,4,-112,-151,3059,-68,-14,36,-7,-28
-34,-39,19,4,-107,-151,3064,-63,-5,36,-14,-22
-39,-39,19,9,-107,-151,3074,-63,0,39,-19,-19
-24,-19,24,14,-97,-146,3084,-53,5,21,-14,-7
-19,-4,29,14,-102,-141,3089,-53,15,11,-17,5
4,14,39,19,-102,-141,3084,-53,10,-9,-3,12
34,34,43,24,-102,-136,3098,-48,0,-34,17,17
14,34,53,34,-92,-136,3113,-43,20,-24,-3,27
-29,19,43,29,-102,-146,3113,-53,48,5,-38,33
-43,29,68,53,-102,-151,3123,-58,72,7,-57,50
-78,-4,78,73,-107,-165,3128,-78,74,41,-76,35
-102,-53,87,92,-102,-165,3132,-92,49,77,-75,-2
-117,-87,87,126,-78,-156,3142,-102,30,102,-73,-28
-107,-87,97,156,-29,-136,3147,-92,20,97,-63,-33
-87,-68,92,165,19,-102,3152,-82,19,77,-53,-24
-43,-48,78,151,87,-24,3157,-48,-5,45,-19,-26
39,24,58,131,175,97,3167,9,-15,-31,27,4
126,117,34,112,278,224,3172,87,-9,-121,67,54
200,165,-4,68,356,341,3181,141,-35,-182,117,65
263,190,-63,14,429,463,3186,195,-73,-226,168,58
370,258,-141,-68,527,605,3191,278,-112,-314,241,73
492,346,-258,-204,610,766,3201,366,-146,-419,319,100
590,414,-390,-370,683,927,3206,448,-176,-502,383,119
712,483,-531,-531,756,1088,3211,531,-229,-597,470,127
819,546,-673,-688,805,1200,3215,614,-273,-682,546,136
834,551,-829,-858,810,1273,3225,663,-283,-692,558,134
834,531,-941,-1010,775,1302,3225,683,-303,-682,568,114
814,483,-1029,-1137,673,1215,3240,658,-331,-648,572,76
780,429,-1107,-1259,453,1000,3245,585,-351,-604,565,39
732,375,-1156,-1356,190,722,3250,507,-357,-553,544,9
673,331,-1141,-1395,-48,463,3250,429,-342,-502,507,-5
605,263,-1117,-1395,-248,229,3264,336,-342,-434,473,-39
527,170,-1102,-1381,-429,0,3269,229,-357,-348,442,-93
488,107,-1058,-1337,-595,-219,3274,141,-381,-297,434,-137
453,73,-985,-1273,-756,-405,3279,68,-380,-263,416,-153
405,29,-922,-1185,-844,-517,3284,0,-376,-217,390,-173
361,9,-844,-1083,-829,-527,3289,-34,-352,-185,356,-171
317,14,-732,-922,-732,-473,3303,-34,-303,-165,310,-144
287,4,-614,-766,-644,-434,3308,-58,-283,-145,285,-139
239,-58,-512,-649,-585,-414,3308,-92,-297,-90,268,-177
200,-82,-429,-522,-512,-390,3323,-102,-282,-59,241,-182
180,-43,-336,-405,-409,-336,1542,-78,-223,-68,201,-133
161,-14,-263,-302,-331,-287,1542,-68,-175,-73,168,-94
117,-29,-200,-234,-287,-263,1522,-68,-146,-44,131,-87
92,-29,-156,-180,-244,-244,1503,-63,-121,-31,106,-75
58,-9,-136,-141,-224,-229,1512,-78,-67,-24,62,-38
39,9,-112,-117,-219,-234,1522,-82,-30,-24,34,-10
9,-4,-58,-78,-200,-214,1522,-73,-13,-2,11,-8
-19,-34,-14,-43,-170,-190,1517,-73,-15,26,-2,-24
-48,-48,9,-4,-136,-180,1532,-82,0,48,-24,-24
-53,-58,14,19,-117,-165,1537,-97,-5,55,-24,-31
-53,-58,19,24,-102,-156,1542,-92,-5,55,-24,-31
-29,-19,29,34,-92,-146,1546,-87,10,24,-19,-4
9,29,39,48,-78,-131,1551,-78,20,-19,-5,24
0,29,48,63,-82,-126,1561,-68,29,-14,-14,29
0,53,63,73,-82,-126,1576,-68,53,-26,-26,53
-4,39,68,82,-78,-131,1576,-68,43,-17,-23,41
-4,39,68,87,-78,-136,1586,-68,43,-17,-23,41
-9,29,58,87,-63,-122,1576,-73,38,-10,-23,33
-4,29,68,87,-53,-122,1576,-78,33,-12,-18,31
-19,19,68,82,-53,-112,1581,-78,38,0,-28,28
-34,0,68,82,-53,-112,1571,-78,34,17,-34,17
-43,-4,68,82,-53,-112,1561,-68,39,23,-41,17
-53,-9,73,87,-53,-112,1571,-68,44,31,-48,17
-58,-19,73,92,-53,-112,1571,-68,39,38,-48,10
-63,-24,78,92,-53,-107,1566,-73,39,43,-51,7
-58,-24,68,92,-63,-117,1527,-78,34,41,-46,5
-48,-24,68,97,-53,-117,1507,-82,24,36,-36,0
-43,-14,68,107,-48,-107,1488,-82,29,28,-36,7
-34,-9,68,97,-48,-107,1478,-87,25,21,-29,8
-43,-24,73,97,-48,-117,1454,-92,19,33,-31,-2
-43,-29,73,97,-43,-117,1424,-92,14,36,-28,-7
-53,-34,78,97,-43,-117,1400,-87,19,43,-36,-7
-63,-29,78,102,-43,-117,1376,-87,34,46,-48,2
-34,-4,87,122,-24,-97,1351,-78,30,19,-32,13
-24,9,97,126,-14,-87,1327,-73,33,7,-28,21
-29,19,102,131,-9,-73,1312,-63,48,5,-38,33
-19,34,102,136,0,-78,1298,-58,53,-7,-36,43
-29,29,92,131,-9,-78,1278,-63,58,0,-43,43
-29,9,92,126,-9,-78,1268,-68,38,10,-33,23
-29,4,92,126,-24,-82,1263,-68,33,12,-31,18
-19,4,92,131,-14,-82,1259,-63,23,7,-21,13
-48,0,82,131,-19,-73,1254,-63,48,24,-48,24
-43,4,82,126,-19,-73,1249,-63,47,19,-45,25
-48,0,82,122,-19,-73,1244,-63,48,24,-48,24
-53,-19,82,117,-19,-78,1239,-68,34,36,-43,7
-53,-14,82,107,-14,-87,1229,-73,39,33,-46,12
-63,-9,82,107,-14,-82,1215,-68,54,36,-58,22
-48,-4,82,112,0,-73,1220,-73,44,26,-46,20
-19,9,82,112,0,-68,1220,-78,28,5,-23,18
-24,4,87,126,9,-63,1200,-73,28,10,-26,16
-43,4,87,131,19,-58,1200,-63,47,19,-45,25
-48,4,87,136,39,-48,1180,-58,52,22,-50,28
-39,14,92,146,43,-34,1171,-53,53,12,-46,33
-39,4,82,141,39,-34,1156,-53,43,17,-41,23
-39,0,78,131,29,-43,1137,-53,39,19,-39,19
-24,-9,78,126,24,-53,1122,-63,15,16,-19,3
-39,-14,73,131,24,-63,1107,-78,25,26,-32,5
-19,0,78,141,29,-48,1083,-68,19,9,-19,9
-4,9,82,146,29,-48,1058,-73,13,-2,-8,11
9,14,87,146,39,-48,1029,-73,5,-11,2,9
19,24,97,146,48,-39,1015,-63,5,-21,7,14
24,43,92,161,68,-29,1000,-58,19,-33,2,31
29,53,92,161,73,-29,985,-58,24,-41,2,38
39,73,87,161,73,-19,951,-53,34,-56,2,53
53,78,87,161,82,-14,936,-53,25,-65,14,51
39,73,97,156,87,4,932,-43,34,-56,2,53
19,58,92,161,97,4,922,-43,39,-38,-10,48
0,34,92,161,102,9,912,-43,34,-17,-17,34
-29,19,87,156,102,9,893,-43,48,5,-38,33
-19,4,78,151,87,9,893,-53,23,7,-21,13
-19,0,73,146,87,14,897,-48,19,9,-19,9
-4,0,68,151,92,14,888,-43,4,2,-4,2
9,0,58,131,92,14,883,-43,-9,-4,9,-4
39,39,63,156,122,34,888,-39,0,-39,19,19
63,48,73,165,131,43,902,-29,-15,-55,39,16
63,68,78,170,136,43,912,-24,5,-65,29,36
63,73,73,180,141,43,922,-19,10,-68,26,41
78,73,63,180,146,68,912,-29,-5,-75,41,34
92,78,58,175,151,73,922,-24,-14,-85,53,32
92,78,58,170,156,82,922,-24,-14,-85,53,32
92,78,58,165,161,82,922,-19,-14,-85,53,32
92,63,48,156,156,87,912,-24,-29,-77,60,17
112,58,48,156,161,87,917,-19,-54,-85,83,2
131,68,48,156,170,92,912,-19,-63,-99,97,2
146,73,43,151,175,97,917,-14,-73,-109,109,0
117,63,43,141,165,87,883,-24,-54,-90,85,4
97,53,29,136,161,82,868,-24,-44,-75,70,4
53,19,19,126,161,82,854,-24,-34,-36,43,-7
48,19,19,126,161,82,829,-24,-29,-33,38,-5
63,29,14,122,161,78,800,-34,-34,-46,48,-2
87,29,9,122,161,78,795,-29,-58,-58,72,-14
102,43,9,122,161,82,775,-14,-59,-72,80,-8
117,63,4,112,161,92,756,-14,-54,-90,85,4
141,78,-4,107,165,92,732,-19,-63,-109,102,7
136,73,-9,107,165,87,707,-19,-63,-104,99,5
126,68,-19,102,156,82,673,-24,-58,-97,92,5
112,39,-19,87,141,73,639,-43,-73,-75,92,-17
107,24,-24,87,131,68,610,-34,-83,-65,95,-29
122,29,-19,82,126,68,585,-24,-93,-75,107,-32
131,48,-24,82,126,63,570,-14,-83,-89,107,-17
146,73,-19,87,126,63,531,-14,-73,-109,109,0
146,73,-4,97,136,68,512,-19,-73,-109,109,0
141,68,0,87,131,63,517,-14,-73,-104,107,-2
136,73,0,82,126,68,492,-4,-63,-104,99,5
131,73,0,82,122,68,473,0,-58,-102,94,7
141,82,-4,78,102,53,448,-14,-59,-111,100,11
136,63,-9,68,92,53,424,-19,-73,-99,104,-5
122,58,-14,58,87,39,409,-29,-64,-90,93,-3
117,39,-19,48,82,29,400,-34,-78,-78,97,-19
97,29,-24,43,63,14,385,-48,-68,-63,82,-19
92,29,-29,34,58,4,380,-53,-63,-60,77,-17
87,19,-34,29,48,-4,375,-58,-68,-53,77,-24
73,9,-39,29,39,-4,366,-58,-64,-41,68,-27
87,39,-29,39,48,0,361,-53,-48,-63,67,-4
102,48,-9,48,53,4,366,-48,-54,-75,78,-3
117,53,0,58,58,9,390,-34,-64,-85,90,-5
126,63,9,63,58,4,395,-39,-63,-94,94,0
92,43,-9,48,43,-14,380,-48,-49,-67,70,-3
78,24,-14,34,34,-29,380,-58,-54,-51,66,-15
78,19,-14,39,34,-34,380,-63,-59,-48,68,-20
68,14,-14,34,29,-34,380,-68,-54,-41,61,-20
58,9,-9,39,24,-43,385,-73,-49,-33,53,-20
63,14,-9,39,19,-43,375,-73,-49,-38,56,-17
43,-14,-14,34,4,-53,366,-78,-57,-14,50,-35
9,-43,-14,34,0,-58,366,-87,-52,17,30,-47
14,-14,-4,43,14,-53,361,-92,-28,0,21,-21
14,-19,0,48,9,-53,341,-92,-33,2,23,-26
14,-29,4,48,9,-63,326,-87,-43,7,28,-36
24,0,9,53,9,-58,322,-82,-24,-12,24,-12
14,0,14,48,4,-68,302,-82,-14,-7,14,-7
9,-9,19,53,0,-68,283,-82,-18,0,13,-13
4,4,29,58,-9,-73,283,-82,0,-4,2,2
9,-19,29,58,-14,-73,283,-82,-28,5,18,-23
19,-4,39,68,-9,-63,263,-63,-23,-7,21,-13
24,24,53,73,-9,-58,229,-63,0,-24,12,12
58,68,58,82,-4,-53,209,-63,10,-63,24,39
82,97,68,92,9,-48,190,-63,15,-89,33,56
73,78,48,82,0,-53,165,-73,5,-75,34,41
39,58,48,82,-14,-68,126,-73,19,-48,10,38
19,39,48,73,-19,-82,87,-82,20,-29,0,29
-4,14,53,73,-24,-92,58,-92,18,-5,-11,16
-19,-9,48,68,-39,-87,24,-92,10,14,-14,0
-34,0,48,63,-39,-87,0,-87,34,17,-34,17
-58,-24,48,68,-34,-87,-29,-87,34,41,-46,5
-112,-63,53,68,-34,-92,-53,-97,49,87,-80,-7
-107,-48,53,68,-24,-92,-87,-87,59,77,-83,5
-53,-9,63,68,-29,-92,-107,-82,44,31,-48,17
-19,4,63,68,-39,-97,-117,-82,23,7,-21,13
9,19,63,68,-43,-102,-126,-87,10,-14,0,14
4,19,63,78,-53,-102,-141,-97,15,-11,-5,17
0,19,63,82,-53,-102,-156,-97,19,-9,-9,19
0,24,73,87,-53,-102,-175,-92,24,-12,-12,24
-4,24,73,87,-53,-112,-190,-92,28,-10,-16,26
-9,19,78,97,-53,-122,-180,-97,28,-5,-18,23
-34,4,82,92,-53,-122,-175,-97,38,15,-36,21
-39,-4,87,92,-53,-122,-180,-97,35,21,-37,15
-53,-19,97,97,-53,-126,-165,-102,34,36,-43,7
-68,-29,92,87,-63,-126,-156,-92,39,48,-53,5
-78,-48,92,87,-68,-126,-151,-102,30,63,-54,-9
-92,-58,87,87,-68,-136,-156,-102,34,75,-63,-12
-117,-63,87,87,-63,-136,-151,-97,54,90,-85,-4
-102,-63,73,87,-73,-141,-156,-107,39,82,-70,-12
-82,-63,73,87,-78,-151,-151,-117,19,72,-50,-22
-97,-63,78,87,-78,-156,-156,-126,34,80,-65,-14
-92,-48,78,92,-78,-156,-156,-131,44,70,-68,-2
-63,-29,92,107,-53,-131,-141,-107,34,46,-48,2
-48,-14,112,117,-43,-122,-131,-97,34,31,-41,10
-43,-4,122,126,-39,-117,-131,-97,39,23,-41,17
-48,-4,126,136,-34,-126,-131,-97,44,26,-46,20
-48,0,136,126,-43,-136,-141,-97,48,24,-48,24
-53,-19,136,126,-53,-136,-156,-97,34,36,-43,7
-73,-29,131,122,-53,-141,-161,-102,44,51,-58,7
-92,-24,131,117,-53,-141,-170,-107,68,58,-80,22
-102,-43,122,102,-58,-156,-185,-112,59,72,-80,8
-92,-53,117,107,-58,-156,-190,-107,39,72,-65,-7
-78,-39,107,107,-58,-151,-195,-102,39,58,-58,0
-73,-58,102,107,-68,-156,-200,-107,15,65,-44,-21
-97,-43,117,112,-53,-146,-200,-107,54,70,-75,5
-87,-39,117,117,-43,-136,-185,-107,48,63,-67,4
-82,-24,136,126,-39,-117,-185,-107,58,53,-70,17
-53,9,141,146,-19,-117,-180,-87,62,22,-57,35
-43,9,141,151,-19,-112,-175,-97,52,17,-47,30
9,29,146,151,-9,-107,-165,-87,20,-19,-5,24
-4,29,156,151,-9,-97,-151,-78,33,-12,-18,31
-29,39,161,151,-9,-92,-131,-73,68,-5,-48,53
9,68,165,175,9,-78,-126,-68,59,-38,-25,63
-4,53,175,175,9,-68,-117,-58,57,-24,-30,55
-9,48,175,175,9,-68,-117,-58,57,-19,-33,52
-14,43,175,175,9,-68,-117,-58,57,-14,-35,50
-19,39,175,175,9,-68,-117,-58,58,-10,-38,48
-9,34,180,165,4,-68,-131,-63,43,-12,-26,38
-9,39,180,170,9,-68,-136,-63,48,-15,-28,43
0,34,180,175,14,-68,-131,-53,34,-17,-17,34
-4,29,175,175,14,-63,-136,-53,33,-12,-18,31
14,39,165,185,24,-73,-165,-68,25,-26,-5,32
-4,34,161,170,9,-82,-190,-73,38,-15,-21,36
-9,29,151,161,9,-82,-209,-73,38,-10,-23,33
0,48,141,156,9,-82,-224,-73,48,-24,-24,48
9,43,146,146,4,-87,-239,-73,34,-26,-12,38
19,34,141,141,0,-82,-253,-68,15,-26,2,24
-19,14,136,136,4,-82,-268,-63,33,2,-26,23
-43,-4,131,136,-9,-82,-283,-63,39,23,-41,17
-58,-4,117,122,-4,-73,-312,-63,54,31,-56,25
-53,0,112,112,-4,-73,-331,-63,53,26,-53,26
-39,4,102,107,-4,-78,-351,-63,43,17,-41,23
-14,24,102,107,-4,-78,-380,-63,38,-5,-26,31
4,53,112,112,9,-58,-419,-48,49,-28,-22,51
34,73,112,112,14,-48,-453,-29,39,-53,-2,56
43,82,97,102,19,-34,-483,-29,39,-62,2,60
43,68,82,87,14,-43,-517,-24,25,-55,9,46
24,39,68,87,0,-58,-570,-43,15,-31,4,27
39,29,58,78,-4,-63,-595,-48,-10,-34,24,9
19,29,48,73,-14,-68,-614,-53,10,-24,4,19
4,9,48,73,-19,-68,-629,-58,5,-6,0,7
-4,0,48,58,-24,-73,-644,-63,4,2,-4,2
-14,-24,43,48,-34,-82,-678,-73,-10,19,-2,-17
-39,-39,34,39,-48,-87,-702,-82,0,39,-19,-19
-48,-48,29,34,-53,-92,-717,-87,0,48,-24,-24
-19,-19,34,48,-39,-73,-707,-78,0,19,-9,-9
4,9,53,58,-24,-68,-707,-63,5,-6,0,7
24,29,68,68,-9,-63,-717,-53,5,-26,9,17
48,53,73,73,0,-58,-717,-43,5,-50,21,29
43,48,73,63,-9,-68,-707,-53,5,-45,19,26
19,24,73,63,-14,-73,-722,-63,5,-21,7,14
14,19,73,63,-19,-73,-722,-63,5,-16,4,12
9,14,73,63,-24,-78,-712,-58,5,-11,2,9
4,14,73,63,-29,-87,-712,-63,10,-9,-3,12
4,14,73,63,-39,-97,-722,-78,10,-9,-3,12
-24,-4,73,53,-58,-117,-741,-92,20,14,-22,8
-48,-34,73,48,-63,-126,-741,-112,14,41,-31,-10
-43,-29,58,53,-63,-122,-717,-97,14,36,-28,-7
-39,-24,58,48,-63,-117,-712,-92,15,31,-27,-4
-43,-19,58,48,-63,-117,-707,-92,24,31,-33,2
-34,-14,53,48,-58,-112,-702,-87,20,24,-27,3
-53,-29,43,48,-58,-122,-707,-97,24,41,-38,-2
-68,-43,53,43,-63,-122,-712,-102,25,55,-46,-9
-82,-53,58,43,-68,-126,-707,-97,29,67,-55,-12
-107,-78,58,39,-73,-131,-712,-102,29,92,-68,-24
-92,-78,63,34,-78,-136,-717,-102,14,85,-53,-32
-87,-82,63,34,-78,-131,-727,-102,5,84,-46,-38
-97,-78,68,34,-78,-126,-732,-97,19,87,-58,-29
-107,-68,68,34,-78,-122,-732,-92,39,87,-73,-14
-82,-53,78,43,-73,-122,-717,-82,29,67,-55,-12
-63,-39,78,39,-78,-126,-712,-92,24,51,-43,-7
-39,-19,78,39,-78,-126,-707,-92,20,29,-29,0
-14,-4,78,39,-73,-126,-692,-92,10,9,-12,3
-34,-24,73,39,-68,-126,-663,-102,10,29,-22,-7
-43,-39,73,43,-68,-122,-663,-102,4,41,-23,-17
-53,-48,68,43,-68,-122,-668,-102,5,50,-29,-21
-63,-48,63,39,-68,-126,-668,-102,15,55,-39,-16
-73,-68,63,29,-87,-131,-653,-102,5,70,-39,-31
-73,-78,58,29,-87,-131,-629,-102,-5,75,-34,-41
-68,-68,58,29,-87,-131,-605,-102,0,68,-34,-34
-58,-48,63,29,-82,-126,-580,-97,10,53,-34,-19
-63,-34,63,43,-73,-117,-561,-87,29,48,-46,-2
-68,-43,63,43,-73,-117,-556,-87,25,55,-46,-9
-92,-53,58,34,-78,-126,-551,-92,39,72,-65,-7
-97,-53,53,29,-87,-131,-551,-97,44,75,-70,-4
-112,-68,39,19,-92,-146,-561,-102,44,90,-78,-12
-117,-78,39,24,-92,-146,-551,-107,39,97,-78,-19
-102,-73,43,24,-97,-146,-551,-112,29,87,-65,-22
-107,-78,48,24,-97,-151,-551,-112,29,92,-68,-24
-87,-73,63,39,-92,-146,-546,-107,14,80,-50,-29
-87,-78,68,39,-87,-141,-541,-102,9,82,-48,-34
-97,-78,73,34,-87,-136,-541,-97,19,87,-58,-29
-87,-73,82,34,-82,-136,-551,-92,14,80,-50,-29
-92,-82,34,14,-92,-136,-580,-97,10,87,-51,-36
-53,-34,34,34,-92,-126,-566,-102,19,43,-36,-7
-19,19,82,58,-92,-136,-575,-102,38,0,-28,28
-63,9,107,63,-82,-141,-595,-107,72,27,-67,40
-136,-53,107,73,-68,-136,-610,-97,83,94,-109,15
-151,-82,117,102,-53,-126,-605,-102,69,116,-110,-6
-117,-68,156,146,-29,-126,-614,-102,49,92,-83,-9
-107,-68,165,175,0,-107,-629,-102,39,87,-73,-14
-107,-68,161,175,39,-92,-644,-102,39,87,-73,-14
-63,-39,136,170,68,-43,-629,-87,24,51,-43,-7
-48,-43,97,151,126,39,-590,-58,5,45,-26,-19
-58,-68,34,102,180,126,-575,-29,-10,63,-24,-39
-34,-48,-14,39,239,214,-527,14,-14,41,-10,-31
39,14,-34,4,322,346,-434,97,-25,-26,32,-5
146,82,-53,-39,419,497,-322,190,-64,-114,105,9
278,161,-112,-107,502,658,-244,287,-117,-219,197,22
434,268,-214,-214,585,829,-161,380,-166,-351,300,51
536,356,-356,-366,639,980,-58,473,-180,-446,358,88
585,400,-468,-551,649,1112,24,546,-185,-492,385,107
639,453,-575,-732,634,1195,73,605,-186,-546,412,133
717,522,-688,-883,639,1254,112,653,-195,-619,456,163
756,551,-775,-1000,605,1273,136,668,-205,-653,480,173
712,507,-834,-1112,473,1146,92,644,-205,-609,458,151
614,424,-902,-1220,248,897,-29,585,-190,-519,402,117
497,341,-976,-1317,-19,590,-185,497,-156,-419,326,92
400,263,-971,-1356,-258,297,-346,385,-137,-331,268,63
341,200,-936,-1351,-448,29,-478,297,-141,-270,241,29
331,146,-932,-1337,-605,-180,-619,200,-185,-238,258,-19
307,102,-907,-1302,-775,-375,-761,97,-205,-204,256,-51
278,48,-844,-1244,-893,-536,-873,9,-230,-163,254,-91
224,-19,-795,-1180,-936,-614,-927,-53,-243,-102,233,-131
151,-82,-732,-1088,-907,-600,-971,-92,-233,-34,192,-157
82,-102,-653,-941,-800,-551,-1015,-107,-184,10,133,-143
82,-87,-570,-775,-673,-492,-1054,-112,-169,2,125,-128
112,-53,-458,-629,-590,-448,-1049,-102,-165,-29,138,-109
122,-43,-375,-512,-517,-414,-1063,-117,-165,-39,143,-104
73,-63,-312,-419,-448,-385,-1102,-136,-136,-5,104,-99
19,-87,-239,-341,-375,-341,-1132,-136,-106,34,62,-96
-14,-107,-185,-287,-331,-302,-1132,-131,-93,60,39,-100
-29,-87,-146,-239,-283,-278,-1132,-126,-58,58,14,-72
-19,-39,-92,-185,-239,-244,-1132,-102,-20,29,0,-29
9,-4,-29,-107,-190,-195,-1122,-92,-13,-2,11,-8
-9,-4,24,-34,-151,-170,-1098,-92,5,6,-7,0
-39,-29,39,14,-126,-170,-1093,-102,10,34,-24,-9
-68,-78,29,14,-122,-180,-1102,-126,-10,73,-29,-44
-92,-107,29,14,-112,-175,-1102,-131,-15,99,-38,-61
-92,-97,34,19,-107,-170,-1102,-136,-5,94,-43,-51
-78,-78,39,29,-97,-161,-1102,-136,0,78,-39,-39
-102,-107,34,29,-82,-151,-1083,-126,-5,104,-48,-56
-126,-102,43,34,-82,-146,-1058,-126,24,114,-75,-39
-156,-136,43,39,-78,-146,-1049,-126,20,146,-88,-58
-180,-156,39,39,-78,-146,-1029,-126,24,168,-102,-66
-131,-107,58,68,-58,-131,-1005,-112,24,119,-77,-41
-82,-58,78,78,-43,-122,-971,-107,24,70,-53,-17
-53,-19,87,82,-39,-102,-932,-97,34,36,-43,7
-24,9,97,92,-34,-92,-907,-87,33,7,-28,21
-48,-19,78,82,-48,-102,-897,-92,29,33,-38,5
-73,-39,73,78,-53,-112,-878,-97,34,56,-53,-2
-92,-63,63,73,-58,-122,-868,-102,29,77,-60,-17
-112,-82,58,63,-63,-126,-863,-112,30,97,-71,-26
-102,-68,78,73,-58,-122,-868,-107,34,85,-68,-17
-87,-53,87,87,-43,-117,-863,-102,34,70,-60,-9
-78,-29,97,107,-34,-102,-858,-92,49,53,-63,10
-63,-9,107,107,-29,-97,-844,-87,54,36,-58,22
-68,-24,92,92,-34,-112,-863,-92,44,46,-56,10
-63,-39,82,87,-34,-117,-888,-102,24,51,-43,-7
-68,-53,78,82,-39,-122,-907,-107,15,60,-41,-19
-73,-58,68,82,-43,-126,-927,-117,15,65,-44,-21
-73,-58,63,97,-39,-122,-961,-112,15,65,-44,-21
-82,-58,68,97,-34,-117,-995,-112,24,70,-53,-17
-107,-63,68,97,-34,-107,-1019,-107,44,85,-75,-9
-117,-63,63,97,-29,-117,-1044,-107,54,90,-85,-4
-92,-39,68,82,-24,-102,-1063,-97,53,65,-72,7
-68,-39,73,78,-19,-97,-1083,-97,29,53,-48,-5
-43,-24,78,78,-29,-97,-1098,-92,19,33,-31,-2
-9,-4,82,82,-14,-92,-1112,-82,5,6,-7,0
-48,-9,73,97,-19,-92,-1137,-92,39,28,-43,15
-43,-4,73,97,-19,-92,-1151,-92,39,23,-41,17
-48,-9,73,97,-19,-92,-1166,-92,39,28,-43,15
-53,-29,73,97,-19,-97,-1180,-97,24,41,-38,-2
-73,-34,68,92,-24,-102,-1195,-112,39,53,-56,2
-92,-39,63,87,-24,-102,-1215,-107,53,65,-72,7
-87,-43,58,87,-9,-97,-1215,-112,44,65,-65,0
-68,-39,53,82,-9,-97,-1220,-117,29,53,-48,-5
-63,-29,73,102,-4,-92,-1224,-112,34,46,-48,2
-73,-24,78,102,0,-87,-1220,-102,49,48,-61,12
-68,-19,82,102,14,-78,-1234,-97,49,43,-58,15
-48,-4,92,107,14,-63,-1239,-92,44,26,-46,20
-39,9,78,97,19,-53,-1244,-82,48,15,-43,28
-39,9,68,92,19,-53,-1244,-73,48,15,-43,28
-24,4,63,92,24,-53,-1239,-73,28,10,-26,16
-39,4,53,102,34,-53,-1234,-78,43,17,-41,23
-53,-14,39,87,19,-58,-1249,-87,39,33,-46,12
-73,-39,34,87,9,-68,-1273,-102,34,56,-53,-2
-92,-68,29,82,9,-78,-1302,-112,24,80,-58,-22
-117,-92,29,78,9,-78,-1317,-112,25,104,-71,-33
-82,-48,43,97,34,-53,-1298,-97,34,65,-58,-7
-48,-14,53,102,43,-48,-1298,-87,34,31,-41,10
-9,29,58,107,48,-34,-1317,-73,38,-10,-23,33
34,58,68,112,63,-24,-1317,-63,24,-46,5,41
29,63,68,122,78,-14,-1302,-53,34,-46,-2,48
19,58,63,131,87,-14,-1302,-53,39,-38,-10,48
9,43,63,136,92,-9,-1302,-53,34,-26,-12,38
-9,39,58,136,92,-9,-1312,-53,48,-15,-28,43
-24,19,39,126,87,-9,-1317,-58,43,2,-33,31
-29,9,34,117,87,-4,-1307,-58,38,10,-33,23
-19,4,29,117,92,-4,-1312,-58,23,7,-21,13
-9,0,19,92,92,-4,-1312,-63,9,4,-9,4
9,29,34,122,112,9,-1298,-53,20,-19,-5,24
24,19,43,126,122,24,-1283,-48,-5,-21,14,7
14,19,48,126,126,29,-1273,-48,5,-16,4,12
4,4,43,131,131,34,-1263,-48,0,-4,2,2
9,14,43,126,136,39,-1249,-48,5,-11,2,9
24,19,39,126,141,43,-1234,-43,-5,-21,14,7
24,19,39,126,146,53,-1229,-43,-5,-21,14,7
24,19,39,126,151,53,-1224,-39,-5,-21,14,7
34,29,39,136,161,68,-1210,-34,-5,-31,19,12
53,29,39,136,170,78,-1180,-29,-24,-41,38,2
73,43,39,136,185,92,-1161,-29,-30,-58,51,6
87,53,34,131,195,107,-1132,-24,-34,-70,60,9
87,43,24,112,190,102,-1156,-24,-44,-65,65,0
87,43,9,107,180,92,-1161,-24,-44,-65,65,0
63,19,0,97,175,87,-1166,-24,-44,-41,53,-12
78,29,0,97,170,82,-1180,-24,-49,-53,63,-10
58,9,-9,78,165,82,-1200,-34,-49,-33,53,-20
68,-9,-19,73,161,78,-1205,-39,-77,-29,72,-43
68,-14,-24,68,156,78,-1224,-34,-82,-27,75,-48
68,-14,-34,53,151,82,-1244,-43,-82,-27,75,-48
78,0,-24,63,151,78,-1259,-43,-78,-39,78,-39
58,-4,-29,68,156,78,-1283,-39,-62,-27,60,-33
34,-9,-39,68,151,78,-1317,-39,-43,-12,38,-26
4,-39,-39,58,141,73,-1351,-53,-43,17,23,-41
19,-34,-29,58,146,82,-1371,-43,-53,7,36,-43
53,-9,-19,53,146,87,-1376,-24,-62,-22,57,-35
82,29,-19,53,151,87,-1371,-4,-53,-55,67,-12
117,73,-9,58,156,92,-1390,4,-44,-95,80,14
117,63,-14,63,141,87,-1405,-19,-54,-90,85,4
102,48,-19,48,131,73,-1395,-24,-54,-75,78,-3
87,43,-29,39,122,68,-1415,-24,-44,-65,65,0
73,34,-39,34,112,58,-1429,-29,-39,-53,56,-2
97,53,-34,43,112,53,-1429,-29,-44,-75,70,4
107,43,-29,39,102,53,-1439,-29,-64,-75,85,-10
107,48,-24,34,97,39,-1439,-34,-59,-77,83,-5
117,39,-19,29,92,29,-1434,-34,-78,-78,97,-19
107,29,-19,29,82,34,-1424,-34,-78,-68,92,-24
102,39,-19,24,78,24,-1415,-34,-63,-70,82,-12
97,39,-19,24,68,14,-1405,-34,-58,-68,77,-9
82,39,-19,29,58,14,-1400,-29,-43,-60,62,-2
73,24,-34,24,39,4,-1395,-43,-49,-48,61,-12
63,9,-29,19,34,-4,-1381,-48,-54,-36,58,-22
53,-9,-34,14,29,-14,-1346,-43,-62,-22,57,-35
39,-24,-39,4,19,-34,-1332,-58,-63,-7,51,-43
4,-48,-43,4,14,-43,-1312,-73,-52,22,28,-50
-9,-63,-43,-4,4,-58,-1288,-78,-54,36,22,-58
-9,-63,-39,4,4,-63,-1263,-78,-54,36,22,-58
-19,-63,-34,4,0,-63,-1239,-78,-44,41,12,-53
-19,-58,-19,9,0,-48,-1205,-73,-39,38,10,-48
-14,-43,-19,9,0,-43,-1185,-63,-29,28,7,-36
-34,-63,-24,4,-9,-48,-1166,-58,-29,48,-2,-46
-68,-82,-24,4,-9,-48,-1137,-58,-14,75,-27,-48
-68,-63,-19,9,-19,-53,-1117,-78,5,65,-36,-29
-73,-78,-19,9,-29,-63,-1112,-82,-5,75,-34,-41
-78,-97,-19,4,-34,-82,-1102,-82,-19,87,-29,-58
-73,-78,-19,4,-39,-87,-1083,-82,-5,75,-34,-41
-58,-58,0,14,-34,-82,-1073,-78,0,58,-29,-29
-48,-48,9,24,-29,-78,-1073,-73,0,48,-24,-24
-39,-14,24,34,-29,-78,-1054,-68,25,26,-32,5
-19,-19,29,39,-24,-73,-1034,-63,0,19,-9,-9
-39,-43,24,34,-34,-82,-1034,-68,-4,41,-17,-23
-53,-34,34,34,-39,-87,-1049,-73,19,43,-36,-7
-39,-9,34,39,-39,-92,-1049,-78,30,24,-34,10
-34,0,39,43,-29,-97,-1049,-82,34,17,-34,17
-43,-4,43,48,-39,-87,-1054,-78,39,23,-41,17
-68,-19,48,53,-53,-97,-1073,-73,49,43,-58,15
-78,-34,53,48,-58,-107,-1093,-78,44,56,-61,5
-92,-53,63,53,-63,-112,-1102,-82,39,72,-65,-7
-73,-43,68,63,-63,-107,-1127,-73,30,58,-51,-6
-53,-9,68,63,-58,-107,-1141,-68,44,31,-48,17
-43,-9,68,73,-48,-107,-1161,-68,34,26,-38,12
-63,-24,73,78,-43,-112,-1176,-78,39,43,-51,7
-117,-63,68,63,-53,-126,-1195,-82,54,90,-85,-4
-112,-58,73,58,-68,-131,-1210,-82,54,85,-83,-2
-126,-78,68,53,-87,-141,-1215,-87,48,102,-87,-15
-146,-97,63,48,-102,-151,-1220,-97,49,121,-97,-24
-122,-73,68,63,-92,-146,-1190,-87,49,97,-85,-12
-97,-48,73,73,-82,-141,-1180,-87,49,72,-73,0
-68,-19,87,82,-73,-136,-1176,-82,49,43,-58,15
-43,4,92,87,-63,-141,-1166,-82,47,19,-45,25
-63,-9,82,82,-78,-141,-1146,-97,54,36,-58,22
-92,-24,82,73,-82,-141,-1132,-97,68,58,-80,22
-102,-34,82,68,-87,-141,-1127,-97,68,68,-85,17
-122,-48,87,68,-92,-146,-1102,-102,74,85,-98,13
-136,-68,82,68,-92,-156,-1078,-112,68,102,-102,0
-146,-87,82,68,-97,-156,-1068,-122,59,116,-102,-14
-161,-97,78,68,-97,-165,-1068,-122,64,129,-112,-16
-185,-102,78,68,-92,-165,-1058,-117,83,143,-134,-9
-156,-92,73,68,-97,-165,-1029,-117,64,124,-110,-14
-131,-92,73,68,-107,-170,-1010,-117,39,111,-85,-26
-141,-92,78,68,-112,-170,-1000,-117,49,116,-95,-21
-131,-78,78,73,-117,-165,-985,-112,53,104,-92,-12
-122,-68,73,78,-102,-151,-966,-92,54,95,-88,-7
-117,-63,82,78,-92,-141,-961,-87,54,90,-85,-4
-122,-63,82,78,-87,-136,-966,-92,59,92,-90,-2
-136,-73,78,78,-82,-146,-971,-97,63,104,-99,-5
-136,-68,78,78,-82,-136,-961,-97,68,102,-102,0
-141,-87,78,78,-92,-136,-976,-97,54,114,-97,-16
-161,-97,73,73,-92,-141,-980,-102,64,129,-112,-16
-180,-92,73,68,-92,-141,-990,-107,88,136,-134,-2
-151,-58,82,82,-73,-131,-971,-97,93,104,-122,17
-102,-24,97,97,-58,-117,-951,-78,78,63,-90,27
-48,34,107,107,-43,-97,-932,-58,82,7,-65,58
-4,58,122,117,-39,-87,-912,-48,62,-27,-33,60
-53,29,107,97,-48,-97,-902,-68,82,12,-67,55
-68,0,97,87,-53,-97,-878,-78,68,34,-68,34
-87,-19,107,82,-63,-87,-868,-87,68,53,-77,24
-82,-19,102,87,-58,-97,-854,-78,63,50,-72,22
-102,-24,102,82,-48,-92,-819,-78,78,63,-90,27
-117,-29,97,82,-48,-97,-800,-78,88,73,-102,29
-131,-34,87,82,-48,-97,-785,-78,97,82,-114,31
-117,-29,102,92,-39,-92,-766,-73,88,73,-102,29
-39,34,131,107,-19,-48,-683,-48,73,2,-56,53
-19,53,131,122,0,-29,-663,-39,72,-17,-45,62
-9,63,131,131,0,-39,-624,-39,72,-27,-40,67
-48,48,136,136,-9,-48,-614,-39,96,0,-72,72
-68,29,122,122,-19,-63,-624,-43,97,19,-82,63
-87,9,117,117,-19,-68,-634,-48,96,39,-91,52
-107,-9,112,112,-19,-73,-644,-53,98,58,-102,44
-126,-29,107,107,-19,-78,-653,-58,97,77,-111,34
-102,-9,126,122,-14,-68,-663,-48,93,55,-97,42
-87,9,131,131,-9,-58,-663,-43,96,39,-91,52
-63,19,136,141,-4,-48,-653,-29,82,22,-72,50
-53,29,136,146,-4,-34,-653,-24,82,12,-67,55
-63,14,146,146,4,-34,-673,-29,77,24,-70,45
-92,-4,141,131,-9,-43,-688,-34,88,48,-90,42
-107,-24,131,122,-9,-43,-697,-34,83,65,-95,29
-107,-19,122,117,-9,-43,-702,-34,88,63,-97,34
-97,-24,107,102,-24,-53,-717,-43,73,60,-85,24
-78,-24,92,92,-29,-53,-732,-48,54,51,-66,15
-107,-34,78,82,-24,-58,-746,-53,73,70,-90,19
-122,-43,63,78,-39,-63,-761,-63,79,82,-100,18
-117,-24,73,78,-39,-53,-761,-58,93,70,-105,34
-102,-9,73,73,-34,-53,-761,-53,93,55,-97,42
-78,4,68,73,-29,-58,-761,-48,82,37,-80,43
-43,34,73,78,-24,-58,-771,-43,77,4,-60,55
-34,43,82,73,-24,-43,-771,-29,77,-4,-55,60
-14,53,82,73,-24,-39,-775,-19,67,-19,-40,60
-14,53,68,63,-24,-29,-775,-29,67,-19,-40,60
-24,29,53,48,-34,-43,-780,-34,53,-2,-38,41
-43,9,39,48,-43,-48,-810,-48,52,17,-47,30
-19,9,29,39,-43,-53,-819,-48,28,5,-23,18
-29,19,19,34,-48,-58,-824,-48,48,5,-38,33
-34,9,19,34,-48,-58,-824,-48,43,12,-38,26
-29,24,39,43,-34,-43,-824,-34,53,2,-41,38
-24,14,43,48,-34,-43,-844,-34,38,5,-31,26
-34,14,43,53,-39,-39,-854,-34,48,10,-41,31
-29,19,48,63,-34,-34,-854,-29,48,5,-38,33
-34,9,34,48,-34,-34,-858,-39,43,12,-38,26
-34,9,43,48,-34,-39,-863,-34,43,12,-38,26
-39,0,48,48,-34,-43,-878,-34,39,19,-39,19
-39,-4,43,43,-39,-48,-883,-34,35,21,-37,15
-43,-9,39,34,-48,-53,-878,-43,34,26,-38,12
-68,-34,34,34,-53,-63,-888,-53,34,51,-51,0
-73,-39,29,34,-58,-68,-883,-53,34,56,-53,-2
-78,-43,24,34,-63,-78,-868,-48,35,60,-56,-4
-97,-58,29,24,-68,-92,-878,-53,39,77,-68,-9
-112,-63,34,24,-78,-97,-888,-68,49,87,-80,-7
-156,-87,39,14,-97,-112,-907,-82,69,121,-112,-9
-195,-122,43,9,-102,-117,-907,-102,73,158,-134,-24
-175,-112,43,9,-92,-102,-888,-97,63,143,-119,-24
-165,-92,48,9,-92,-97,-888,-92,73,128,-119,-9
-165,-73,53,14,-92,-97,-888,-92,92,119,-128,9
-151,-53,53,19,-87,-92,-888,-87,98,102,-124,22
-141,-48,39,14,-92,-92,-897,-82,93,94,-117,22
-126,-43,43,14,-92,-92,-897,-82,83,84,-104,20
-112,-34,43,19,-92,-97,-888,-73,78,73,-95,22
-107,-39,39,19,-92,-102,-888,-73,68,73,-87,14
-107,-39,48,24,-97,-102,-888,-92,68,73,-87,14
-107,-53,43,24,-97,-102,-893,-92,54,80,-80,0
-122,-58,43,24,-97,-102,-893,-87,64,90,-93,3
-136,-58,39,24,-97,-102,-888,-82,78,97,-107,10
-156,-68,29,19,-112,-112,-888,-82,88,112,-122,10
-161,-78,29,9,-117,-117,-888,-92,83,119,-122,2
-161,-82,29,4,-117,-117,-888,-92,79,121,-120,-1
-161,-92,29,0,-112,-117,-878,-92,69,126,-115,-11
-141,-78,34,4,-102,-107,-854,-82,63,109,-102,-7
-131,-68,43,14,-97,-102,-849,-82,63,99,-97,-2
-122,-53,48,19,-92,-102,-849,-82,69,87,-95,8
-112,-29,53,19,-87,-107,-844,-82,83,70,-97,27
-122,-48,48,19,-97,-112,-824,-82,74,85,-98,13
-122,-58,39,19,-97,-112,-805,-82,64,90,-93,3
-117,-48,34,19,-97,-112,-785,-82,69,82,-93,10
-107,-29,34,19,-92,-107,-766,-78,78,68,-92,24
-107,-29,43,14,-92,-117,-736,-87,78,68,-92,24
-107,-43,43,14,-92,-117,-722,-87,64,75,-85,10
-126,-58,39,4,-97,-126,-707,-92,68,92,-97,5
-126,-63,34,0,-107,-131,-697,-97,63,94,-94,0
-136,-78,19,9,-117,-131,-678,-97,58,107,-97,-10
-136,-78,19,14,-112,-126,-658,-97,58,107,-97,-10
-117,-63,24,14,-112,-122,-649,-97,54,90,-85,-4
-117,-58,29,14,-107,-122,-639,-92,59,87,-88,0
-122,-68,39,9,-117,-131,-614,-102,54,95,-88,-7
-136,-78,39,9,-117,-131,-600,-102,58,107,-97,-10
-161,-82,39,4,-122,-131,-590,-102,79,121,-120,-1
-165,-82,43,4,-122,-136,-590,-102,83,123,-124,0
-200,-92,14,4,-122,-126,-561,-97,108,146,-154,8
-209,-122,24,14,-112,-126,-546,-92,87,165,-148,-17
-175,-107,34,19,-112,-126,-536,-92,68,141,-121,-19
-131,-58,39,24,-112,-131,-546,-117,73,94,-102,7
-126,-53,78,63,-97,-136,-561,-126,73,89,-99,10
-141,-82,107,92,-73,-136,-556,-122,59,111,-100,-11
-146,-87,117,117,-48,-126,-546,-112,59,116,-102,-14
-165,-87,117,126,-19,-87,-541,-112,78,126,-121,-4
-165,-87,92,126,48,-34,-517,-92,78,126,-121,-4
-122,-58,78,112,136,53,-463,-58,64,90,-93,3
-39,-4,48,102,224,175,-375,0,35,21,-37,15
19,39,4,63,297,292,-312,68,20,-29,0,29
43,58,-24,19,366,419,-253,131,15,-50,14,36
87,92,-82,-53,429,551,-151,214,5,-89,41,48
175,161,-170,-175,507,712,-9,307,-14,-168,94,73
287,239,-278,-312,570,902,117,414,-48,-263,167,95
375,326,-380,-458,644,1083,239,527,-49,-350,212,138
458,434,-483,-619,688,1234,361,619,-24,-446,241,205
556,536,-605,-785,707,1346,473,692,-20,-546,288,258
590,561,-741,-946,702,1429,531,751,-29,-575,309,266
570,551,-824,-1068,658,1439,531,761,-19,-560,294,266
522,522,-873,-1176,507,1293,478,727,0,-522,261,261
468,468,-941,-1278,258,1010,375,644,0,-468,234,234
390,385,-980,-1366,-24,683,234,556,-5,-387,197,190
292,302,-966,-1385,-283,356,58,448,10,-297,141,156
224,214,-941,-1385,-492,63,-102,326,-10,-219,117,102
175,122,-956,-1371,-673,-204,-253,209,-53,-148,114,34
126,39,-951,-1346,-829,-434,-395,92,-87,-82,106,-24
112,-4,-897,-1283,-932,-580,-507,9,-116,-54,114,-60
73,-58,-814,-1185,-951,-624,-580,-29,-131,-7,102,-94
29,-78,-727,-1063,-897,-595,-595,-43,-107,24,68,-92
34,-73,-624,-922,-800,-541,-619,-53,-107,19,70,-90
43,-73,-546,-766,-702,-492,-644,-68,-116,15,79,-94
43,-78,-473,-629,-605,-453,-653,-73,-121,17,82,-99
-4,-112,-390,-522,-541,-419,-668,-102,-108,58,52,-110
-53,-161,-326,-434,-478,-395,-692,-136,-108,107,27,-134
-82,-170,-283,-380,-419,-356,-712,-136,-88,126,3,-129
-126,-156,-239,-322,-356,-312,-712,-126,-30,141,-48,-93
-92,-87,-175,-248,-292,-273,-692,-112,5,89,-48,-41
-39,-29,-117,-180,-253,-239,-653,-97,10,34,-24,-9
-58,-39,-82,-136,-229,-234,-644,-92,19,48,-38,-10
-58,-43,-39,-78,-200,-214,-634,-92,15,50,-36,-14
-9,-4,14,-4,-151,-170,-600,-73,5,6,-7,0
-39,-19,19,24,-117,-151,-566,-82,20,29,-29,0
-92,-73,9,24,-112,-161,-556,-112,19,82,-55,-27
-131,-107,9,14,-102,-156,-556,-112,24,119,-77,-41
-146,-102,14,9,-97,-151,-556,-112,44,124,-95,-29
-146,-87,19,9,-87,-141,-556,-107,59,116,-102,-14
-146,-92,19,34,-92,-141,-541,-87,54,119,-100,-19
-146,-73,34,43,-92,-136,-512,-87,73,109,-109,0
-151,-92,39,53,-87,-136,-497,-87,59,121,-105,-16
-151,-97,39,58,-87,-136,-473,-87,54,124,-102,-21
-136,-78,39,68,-63,-122,-468,-97,58,107,-97,-10
-112,-58,48,68,-53,-122,-453,-97,54,85,-83,-2
-107,-48,48,63,-53,-112,-434,-92,59,77,-83,5
-102,-48,48,63,-53,-112,-429,-87,54,75,-78,3
-102,-39,58,73,-43,-102,-429,-78,63,70,-82,12
-102,-29,63,78,-43,-102,-419,-78,73,65,-87,22
-97,-24,63,82,-43,-102,-419,-78,73,60,-85,24
-92,-14,68,82,-43,-97,-424,-82,78,53,-85,32
-102,-24,68,82,-34,-97,-444,-73,78,63,-90,27
-97,-34,68,87,-24,-97,-453,-73,63,65,-80,14
-97,-34,68,97,-19,-87,-463,-68,63,65,-80,14
-92,-39,68,87,-19,-87,-463,-68,53,65,-72,7
-97,-48,73,87,-24,-97,-483,-73,49,72,-73,0
-92,-48,73,87,-24,-97,-497,-73,44,70,-68,-2
-97,-48,78,87,-29,-97,-507,-68,49,72,-73,0
-102,-39,78,92,-34,-97,-517,-68,63,70,-82,12
-102,-48,78,102,-39,-102,-527,-82,54,75,-78,3
-112,-58,78,97,-34,-97,-546,-82,54,85,-83,-2
-136,-73,73,92,-34,-87,-556,-78,63,104,-99,-5
-146,-82,63,87,-29,-97,-566,-78,64,114,-105,-9
-136,-63,63,87,-24,-92,-551,-73,73,99,-104,5
-126,-68,63,87,-19,-87,-546,-78,58,97,-92,-5
-117,-58,63,92,-29,-87,-536,-78,59,87,-88,0
-97,-43,63,102,-14,-82,-527,-73,54,70,-75,5
-107,-34,73,107,-9,-73,-522,-82,73,70,-90,19
-92,-24,73,107,-9,-73,-517,-82,68,58,-80,22
-87,-24,73,107,-9,-73,-512,-82,63,55,-75,19
-82,-39,73,107,-9,-78,-507,-87,43,60,-62,2
-112,-73,58,92,-19,-82,-502,-97,39,92,-75,-17
-151,-97,53,87,-24,-82,-502,-87,54,124,-102,-21
-165,-122,48,87,-14,-78,-483,-87,43,143,-104,-39
-165,-136,43,82,-19,-78,-468,-87,29,150,-97,-53
-141,-97,53,102,-9,-63,-468,-73,44,119,-92,-26
-131,-73,58,102,0,-58,-458,-63,58,102,-94,-7
-107,-48,63,102,19,-48,-468,-58,59,77,-83,5
-68,-14,73,107,24,-34,-468,-53,54,41,-61,20
-43,9,78,117,34,-19,-453,-34,52,17,-47,30
-39,19,78,122,39,-14,-453,-24,58,10,-48,38
-19,24,82,131,48,-9,-448,-24,43,-2,-31,33
-29,34,82,151,63,-4,-444,-29,63,-2,-46,48
-43,19,68,131,58,-9,-463,-43,62,12,-52,40
-53,0,63,126,48,-19,-492,-53,53,26,-53,26
-63,-24,58,117,48,-29,-527,-58,39,43,-51,7
-78,-43,58,107,48,-29,-546,-53,35,60,-56,-4
-73,-24,63,117,58,-9,-541,-48,49,48,-61,12
-68,-14,63,122,63,-9,-546,-48,54,41,-61,20
-58,4,58,126,63,0,-570,-43,62,27,-60,33
-43,9,58,131,73,4,-575,-43,52,17,-47,30
-39,4,58,136,87,14,-585,-43,43,17,-41,23
-39,0,53,141,97,14,-590,-43,39,19,-39,19
-39,-14,53,141,102,19,-595,-43,25,26,-32,5
-48,-19,48,136,102,19,-610,-43,29,33,-38,5
-43,-14,34,136,102,34,-585,-34,29,28,-36,7
-39,-9,34,136,107,43,-566,-29,30,24,-34,10
-19,0,34,146,117,48,-561,-24,19,9,-19,9
0,9,29,131,122,53,-551,-24,9,-4,-4,9
0,19,29,136,136,53,-556,-24,19,-9,-9,19
4,0,34,136,141,63,-541,-19,-4,-2,4,-2
-14,-9,34,131,141,63,-531,-19,5,11,-9,-2
-34,-34,24,131,141,63,-522,-19,0,34,-17,-17
-19,-29,14,136,146,78,-507,-29,-10,24,-4,-19
-4,-19,9,136,151,82,-492,-24,-15,11,5,-17
-4,-14,9,136,156,92,-488,-24,-10,9,3,-12
-4,-9,9,136,161,92,-483,-19,-5,6,0,-7
0,-9,4,146,180,117,-478,0,-9,4,4,-9
24,-9,9,146,190,126,-458,9,-33,-7,28,-21
48,4,14,146,204,141,-448,14,-44,-26,46,-20
68,14,14,141,214,156,-429,24,-54,-41,61,-20
48,14,0,126,200,141,-448,9,-34,-31,41,-10
48,14,-19,117,190,131,-458,4,-34,-31,41,-10
24,-9,-34,102,185,126,-468,0,-33,-7,28,-21
39,0,-39,97,180,122,-488,-4,-39,-19,39,-19
58,19,-29,107,190,131,-497,9,-39,-38,48,-10
87,29,-19,112,200,136,-483,19,-58,-58,72,-14
107,53,-4,117,209,146,-483,39,-54,-80,80,0
126,82,4,112,219,161,-483,43,-44,-104,85,19
126,73,-4,97,204,161,-483,48,-53,-99,89,10
107,63,-9,97,204,156,-492,48,-44,-85,75,9
82,53,-19,92,195,151,-512,43,-29,-67,55,12
53,19,-19,78,180,141,-531,24,-34,-36,43,-7
48,9,-29,82,180,136,-531,24,-39,-28,43,-15
63,9,-29,73,175,136,-527,34,-54,-36,58,-22
73,24,-39,68,175,131,-512,43,-49,-48,61,-12
87,43,-39,68,175,131,-522,43,-44,-65,65,0
92,29,-39,73,161,126,-546,29,-63,-60,77,-17
82,19,-39,58,151,112,-536,24,-63,-50,72,-22
73,19,-43,48,141,107,-556,24,-54,-46,63,-17
63,14,-48,43,131,97,-570,19,-49,-38,56,-17
73,14,-58,43,122,82,-570,0,-59,-43,66,-22
68,-4,-58,39,112,82,-580,0,-72,-32,70,-38
53,-9,-58,34,107,68,-580,-4,-62,-22,57,-35
48,-29,-58,29,102,58,-575,-4,-77,-9,62,-53
29,-34,-68,24,82,43,-580,-9,-63,2,46,-48
24,-29,-68,14,78,34,-585,-14,-53,2,38,-41
19,-34,-68,9,68,24,-590,-19,-53,7,36,-43
4,-39,-68,9,58,24,-600,-19,-43,17,23,-41
24,-9,-58,19,58,29,-590,-9,-33,-7,28,-21
34,0,-39,29,63,34,-580,-9,-34,-17,34,-17
43,4,-29,39,68,39,-551,0,-39,-23,41,-17
48,14,-19,43,68,34,-541,-9,-34,-31,41,-10
19,-4,-39,29,43,14,-541,-24,-23,-7,21,-13
0,-24,-43,14,34,0,-536,-29,-24,12,12,-24
-4,-29,-43,19,34,-4,-531,-29,-25,16,10,-27
-19,-34,-43,14,29,-4,-527,-29,-15,26,-2,-24
-34,-53,-34,9,19,-14,-522,-39,-19,43,-7,-36
-34,-53,-39,9,9,-24,-531,-43,-19,43,-7,-36
-58,-87,-48,4,-9,-43,-541,-53,-29,72,-14,-58
-97,-122,-53,4,-19,-58,-541,-68,-25,109,-36,-73
-73,-68,-29,19,-4,-48,-522,-53,5,70,-39,-31
-53,-58,-19,29,-9,-43,-527,-43,-5,55,-24,-31
-34,-53,-9,34,-9,-48,-527,-29,-19,43,-7,-36
-4,-9,0,43,-9,-39,-517,-14,-5,6,0,-7
-9,-9,14,48,-9,-39,-527,-24,0,9,-4,-4
-19,-9,19,53,-9,-39,-546,-24,10,14,-14,0
-29,14,29,58,-14,-43,-546,-24,43,7,-36,28
-29,0,29,58,-14,-43,-546,-24,29,14,-29,14
-53,-19,19,53,-14,-48,-556,-24,34,36,-43,7
-63,-14,34,53,-19,-48,-580,-24,49,38,-56,17
-43,4,39,58,-19,-48,-590,-24,47,19,-45,25
-34,9,48,63,-9,-48,-600,-24,43,12,-38,26
-19,24,48,73,-9,-39,-614,-14,43,-2,-31,33
-39,19,48,73,-24,-48,-634,-14,58,10,-48,38
-43,14,48,63,-29,-58,-653,-24,57,14,-50,35
-53,4,53,63,-34,-63,-663,-34,57,24,-55,30
-48,-4,53,53,-39,-78,-688,-43,44,26,-46,20
-43,19,48,53,-39,-78,-702,-39,62,12,-52,40
-48,9,43,63,-34,-78,-722,-39,57,19,-52,33
-82,-14,43,68,-34,-82,-736,-48,68,48,-75,27
-97,-39,43,58,-39,-82,-761,-48,58,68,-77,9
-73,-19,53,58,-48,-82,-771,-43,54,46,-63,17
-68,-24,53,58,-63,-87,-771,-43,44,46,-56,10
-68,-29,53,58,-73,-92,-771,-48,39,48,-53,5
-78,-29,53,58,-68,-82,-766,-48,49,53,-63,10
-78,-29,53,63,-63,-82,-771,-48,49,53,-63,10
-73,-24,63,68,-58,-82,-780,-43,49,48,-61,12
-73,-24,63,68,-53,-92,-785,-43,49,48,-61,12
-82,-34,53,78,-73,-97,-771,-58,48,58,-65,7
-112,-53,53,73,-73,-102,-771,-58,59,82,-85,3
-122,-68,53,73,-73,-107,-780,-58,54,95,-88,-7
-141,-87,58,78,-73,-117,-771,-63,54,114,-97,-16
-156,-97,53,73,-82,-126,-761,-73,59,126,-107,-19
-156,-107,53,68,-87,-126,-756,-82,49,131,-102,-29
-161,-107,48,63,-87,-136,-761,-82,54,134,-107,-26
-175,-102,48,58,-82,-136,-756,-78,73,138,-124,-14
-141,-82,58,68,-68,-126,-722,-63,59,111,-100,-11
-112,-63,63,78,-68,-122,-697,-58,49,87,-80,-7
-117,-43,73,87,-63,-112,-683,-53,74,80,-95,15
-102,-9,78,102,-58,-97,-663,-43,93,55,-97,42
-78,0,82,97,-58,-92,-653,-39,78,39,-78,39
-68,4,92,97,-53,-92,-649,-39,72,32,-70,38
-68,4,92,97,-53,-97,-653,-48,72,32,-70,38
-78,-4,87,97,-53,-117,-658,-58,74,41,-76,35
-87,-19,82,92,-68,-126,-653,-68,68,53,-77,24
-102,-48,78,87,-82,-126,-663,-68,54,75,-78,3
-131,-68,68,78,-87,-131,-663,-73,63,99,-97,-2
-161,-73,63,68,-92,-131,-668,-78,88,117,-124,7
-161,-82,73,68,-78,-122,-678,-78,79,121,-120,-1
-141,-73,78,78,-68,-117,-678,-68,68,107,-104,-2
-117,-39,78,82,-58,-107,-678,-58,78,78,-97,19
-102,-39,82,87,-58,-107,-678,-58,63,70,-82,12
-107,-29,82,78,-68,-117,-688,-58,78,68,-92,24
-97,-29,78,78,-63,-107,-673,-58,68,63,-82,19
-92,-19,92,82,-63,-87,-673,-58,73,55,-82,27
-63,9,92,97,-48,-87,-668,-39,72,27,-67,40
-53,29,107,117,-43,-78,-649,-34,82,12,-67,55
-48,39,107,122,-39,-78,-644,-29,87,4,-67,63
-43,48,102,126,-34,-73,-644,-24,91,-2,-67,69
-9,68,122,141,-19,-63,-639,-14,77,-29,-43,72
-29,34,131,146,-9,-58,-624,-9,63,-2,-46,48
-19,34,122,131,-9,-58,-614,-19,53,-7,-36,43
-48,24,102,122,-29,-68,-614,-29,72,12,-60,48
-107,-29,87,117,-48,-78,-644,-48,78,68,-92,24
-107,-19,92,117,-39,-68,-639,-39,88,63,-97,34
-107,-19,97,117,-39,-68,-634,-39,88,63,-97,34
-107,-19,102,117,-39,-68,-629,-39,88,63,-97,34
-107,-19,107,117,-39,-68,-624,-39,88,63,-97,34
-73,9,117,122,-19,-53,-614,-24,82,32,-77,45
-58,29,122,131,-9,-48,-614,-24,87,14,-72,58
-34,39,126,141,0,-43,-605,-14,73,-2,-53,56
-24,48,126,146,4,-34,-605,-14,72,-12,-48,60
-34,34,136,146,-4,-43,-600,-19,68,0,-51,51
-63,14,131,131,-19,-53,-610,-24,77,24,-70,45
-78,-4,122,122,-19,-53,-614,-24,74,41,-76,35
-78,0,112,117,-19,-53,-614,-24,78,39,-78,39
-48,24,107,117,-9,-39,-605,-14,72,12,-60,48
-19,34,102,112,-9,-34,-605,-9,53,-7,-36,43
-39,34,97,107,0,-34,-605,-4,73,2,-56,53
-43,34,92,107,-9,-34,-605,-4,77,4,-60,55
-68,14,78,102,-24,-43,-624,-14,82,27,-75,48
-73,9,73,92,-24,-43,-624,-14,82,32,-77,45
-68,4,63,87,-24,-48,-624,-14,72,32,-70,38
-53,14,63,87,-24,-48,-634,-14,67,19,-60,40
-29,48,68,92,-14,-43,-639,0,77,-9,-53,62
4,73,73,92,-14,-39,-639,9,69,-38,-32,71
19,87,63,82,-14,-29,-634,0,68,-53,-24,77
24,78,53,68,-24,-43,-634,-4,54,-51,-15,66
4,34,43,68,-43,-58,-673,-19,30,-19,-13,32
19,19,29,58,-43,-63,-683,-19,0,-19,9,9
0,14,14,53,-48,-68,-688,-19,14,-7,-7,14
-14,-9,9,53,-48,-68,-688,-19,5,11,-9,-2
-24,0,24,53,-39,-58,-688,-19,24,12,-24,12
-24,-14,24,48,-43,-63,-707,-24,10,19,-17,-2
-39,-19,19,43,-53,-63,-717,-29,20,29,-29,0
-39,-19,19,43,-53,-63,-717,-29,20,29,-29,0
-29,-19,9,43,-48,-48,-722,-19,10,24,-19,-4
-24,-9,24,48,-43,-48,-727,-14,15,16,-19,3
-24,-9,34,53,-39,-48,-741,-14,15,16,-19,3
-19,-4,34,53,-39,-48,-746,-14,15,11,-17,5
0,19,39,63,-34,-43,-746,-4,19,-9,-9,19
-9,14,43,63,-34,-43,-761,-14,23,-2,-16,18
0,29,48,63,-34,-39,-761,-14,29,-14,-14,29
9,43,53,63,-34,-39,-751,-9,34,-26,-12,38
0,29,63,63,-34,-53,-756,-9,29,-14,-14,29
-4,24,63,63,-39,-58,-771,-19,28,-10,-16,26
-39,0,63,53,-53,-73,-795,-29,39,19,-39,19
-68,-34,63,48,-53,-78,-800,-43,34,51,-51,0
-73,-53,53,39,-63,-92,-805,-53,20,63,-46,-16
-78,-53,48,29,-73,-97,-810,-53,25,65,-51,-14
-92,-53,43,24,-82,-107,-814,-58,39,72,-65,-7
-92,-53,34,19,-87,-112,-819,-58,39,72,-65,-7
-107,-63,29,14,-87,-117,-824,-58,44,85,-75,-9
-107,-73,34,14,-92,-112,-829,-63,34,90,-70,-19
-107,-78,34,19,-97,-112,-824,-58,29,92,-68,-24
-117,-97,29,19,-102,-112,-829,-63,20,107,-68,-38
-117,-97,39,24,-102,-112,-824,-63,20,107,-68,-38
-117,-102,34,24,-97,-112,-824,-63,15,109,-66,-43
-131,-97,34,24,-92,-112,-819,-58,34,114,-82,-31
-146,-87,29,24,-87,-112,-810,-53,59,116,-102,-14
-136,-78,39,34,-82,-107,-800,-53,58,107,-97,-10
-122,-68,39,29,-87,-107,-800,-63,54,95,-88,-7
-102,-53,39,29,-87,-102,-800,-63,49,77,-75,-2
-82,-43,39,29,-82,-97,-790,-63,39,62,-60,-2
-73,-34,48,39,-78,-97,-771,-58,39,53,-56,2
-63,-29,53,43,-78,-92,-771,-53,34,46,-48,2
-53,-19,53,43,-78,-92,-775,-48,34,36,-43,7
-43,0,53,39,-78,-97,-775,-43,43,21,-43,21
-73,-39,48,29,-97,-112,-775,-48,34,56,-53,-2
-92,-68,39,29,-97,-112,-766,-53,24,80,-58,-22
-107,-78,34,29,-97,-112,-756,-58,29,92,-68,-24
-117,-78,34,29,-92,-107,-746,-58,39,97,-78,-19
-112,-63,39,43,-87,-102,-722,-53,49,87,-80,-7
-107,-73,43,43,-82,-97,-722,-48,34,90,-70,-19
-122,-82,43,34,-82,-102,-722,-48,40,102,-81,-21
-117,-82,43,29,-87,-102,-727,-48,35,99,-76,-23
-92,-63,43,34,-82,-92,-712,-43,29,77,-60,-17
-78,-48,48,43,-73,-87,-697,-39,30,63,-54,-9
-43,-19,58,48,-68,-82,-692,-34,24,31,-33,2
-29,0,68,53,-58,-82,-688,-24,29,14,-29,14
-43,-14,63,48,-68,-82,-673,-34,29,28,-36,7
-58,-29,58,48,-68,-82,-668,-34,29,43,-43,0
-82,-39,53,43,-73,-82,-668,-34,43,60,-62,2
-87,-43,53,43,-73,-87,-678,-34,44,65,-65,0
-141,-102,53,34,-92,-117,-697,-58,39,121,-90,-31
-141,-102,53,24,-102,-117,-683,-63,39,121,-90,-31
-117,-78,53,29,-102,-117,-683,-53,39,97,-78,-19
-151,-107,58,43,-122,-141,-712,-78,44,129,-97,-31
-214,-161,58,53,-126,-156,-727,-97,53,187,-133,-54
-219,-161,78,92,-102,-146,-712,-92,58,190,-138,-51
-204,-136,107,156,-39,-107,-683,-73,68,170,-136,-34
-165,-97,126,195,29,-58,-668,-53,68,131,-116,-14
-97,-48,131,195,87,14,-653,-34,49,72,-73,0
-24,9,117,180,165,92,-600,0,33,7,-28,21
19,34,68,141,234,185,-541,39,15,-26,2,24
48,39,14,82,297,273,-507,87,-9,-43,28,15
122,68,-24,48,375,400,-429,161,-54,-95,88,7
234,161,-63,14,488,570,-307,253,-73,-197,153,44
331,248,-151,-97,585,741,-185,346,-83,-289,207,82
444,307,-278,-263,658,893,-87,424,-137,-375,290,85
522,356,-419,-439,732,1054,4,507,-166,-439,344,95
575,395,-570,-619,785,1205,97,590,-180,-485,377,107
614,429,-722,-785,795,1307,180,653,-185,-521,399,122
688,463,-849,-936,790,1371,219,702,-225,-575,456,119
717,483,-941,-1058,756,1400,239,722,-234,-600,475,124
668,434,-1029,-1195,634,1283,185,688,-234,-551,451,100
605,361,-1117,-1317,405,1029,82,614,-244,-483,424,58
566,326,-1146,-1395,151,761,-29,546,-240,-446,403,43
536,302,-1112,-1395,-58,512,-165,478,-234,-419,385,34
517,273,-1068,-1376,-239,278,-287,405,-244,-395,380,14
458,170,-1063,-1361,-419,39,-419,297,-288,-314,373,-59
351,58,-1029,-1337,-634,-209,-570,170,-293,-204,322,-117
287,-14,-966,-1263,-795,-405,-702,68,-301,-136,294,-157
268,-39,-893,-1176,-863,-497,-795,9,-307,-114,287,-173
253,-48,-805,-1054,-829,-488,-819,-4,-301,-102,277,-174
229,-24,-702,-912,-712,-424,-814,-4,-253,-102,241,-138
209,-14,-595,-756,-605,-375,-829,-29,-223,-97,216,-118
180,-58,-502,-629,-527,-346,-868,-43,-238,-61,209,-148
131,-112,-419,-531,-473,-312,-863,-43,-243,-9,187,-177
53,-151,-356,-434,-419,-287,-878,-48,-204,49,128,-177
-14,-190,-292,-351,-370,-278,-897,-68,-176,102,81,-183
-58,-195,-248,-292,-336,-253,-907,-78,-137,126,39,-166
-43,-136,-204,-229,-283,-224,-897,-73,-93,89,25,-114
19,-48,-136,-151,-214,-190,-858,-39,-67,14,43,-57
48,-9,-82,-97,-161,-156,-829,-24,-57,-19,52,-33
19,-24,-39,-58,-131,-136,-839,-24,-43,2,31,-33
0,-34,-14,-24,-102,-122,-824,-34,-34,17,17,-34
-9,-39,-9,4,-107,-102,-810,-43,-30,24,10,-34
-58,-82,-4,24,-107,-107,-810,-73,-24,70,-17,-53
-102,-117,0,24,-102,-107,-810,-73,-15,109,-43,-66
-122,-112,9,29,-102,-107,-810,-73,10,117,-66,-51
-126,-97,19,39,-97,-102,-810,-68,29,111,-77,-34
-117,-87,29,43,-87,-102,-805,-58,30,102,-73,-28
-107,-63,43,53,-82,-97,-785,-58,44,85,-75,-9
-102,-78,48,63,-73,-97,-780,-58,24,90,-63,-27
-92,-78,48,68,-68,-97,-766,-58,14,85,-53,-32
-58,-39,63,82,-43,-78,-756,-43,19,48,-38,-10
-24,-9,78,87,-34,-73,-736,-39,15,16,-19,3
-9,9,82,87,-34,-58,-712,-29,18,0,-13,13
4,19,87,92,-34,-53,-702,-19,15,-11,-5,17
-34,-4,78,87,-43,-68,-712,-29,30,19,-32,13
-63,-29,73,87,-43,-73,-702,-39,34,46,-48,2
-87,-58,63,87,-43,-78,-702,-48,29,72,-58,-14
-112,-82,58,82,-43,-78,-707,-63,30,97,-71,-26
-112,-82,68,82,-53,-87,-722,-58,30,97,-71,-26
-107,-82,68,87,-43,-87,-727,-53,25,94,-66,-28
-107,-73,68,97,-39,-78,-732,-43,34,90,-70,-19
-102,-68,68,87,-39,-78,-727,-39,34,85,-68,-17
-82,-58,63,102,-34,-73,-727,-43,24,70,-53,-17
-63,-48,63,107,-24,-68,-732,-43,15,55,-39,-16
-53,-39,68,112,-19,-63,-732,-39,14,46,-33,-12
-43,-19,68,122,-14,-58,-732,-39,24,31,-33,2
-29,-19,82,131,-19,-63,-746,-34,10,24,-19,-4
-34,-19,87,126,-14,-58,-761,-34,15,26,-24,-2
-53,-24,87,122,-14,-48,-766,-29,29,38,-41,2
-58,-24,82,117,-9,-58,-771,-29,34,41,-46,5
-68,-39,68,112,-9,-68,-780,-43,29,53,-48,-5
-78,-68,63,107,-9,-68,-790,-48,10,73,-44,-29
-87,-82,58,107,-24,-73,-795,-48,5,84,-46,-38
-87,-92,53,112,-14,-73,-800,-43,-5,89,-41,-48
-112,-92,53,112,-19,-73,-805,-53,20,102,-66,-36
-102,-82,53,107,-19,-73,-810,-53,20,92,-61,-31
-102,-82,53,102,-19,-73,-814,-53,20,92,-61,-31
-102,-97,53,97,-19,-78,-819,-58,5,99,-53,-46
-73,-58,68,107,-4,-58,-795,-48,15,65,-44,-21
-63,-29,73,117,4,-43,-785,-29,34,46,-48,2
-29,0,78,131,29,-24,-756,-19,29,14,-29,14
19,39,82,141,39,-9,-732,-9,20,-29,0,29
-9,19,82,141,34,-19,-741,-24,28,-5,-18,23
-43,-4,78,141,29,-29,-741,-24,39,23,-41,17
-63,-29,73,141,34,-34,-761,-29,34,46,-48,2
-68,-43,73,146,24,-34,-771,-34,25,55,-46,-9
-58,-29,73,146,29,-24,-751,-34,29,43,-43,0
-58,-29,68,141,29,-24,-746,-24,29,43,-43,0
-43,-34,68,141,34,-24,-736,-24,9,38,-26,-12
-58,-34,63,151,43,-24,-727,-29,24,46,-41,-5
-34,-24,78,161,58,-9,-727,-24,10,29,-22,-7
-24,-19,82,165,58,-9,-736,-24,5,21,-14,-7
-14,-19,87,165,68,-9,-751,-19,-5,16,-4,-12
-9,-14,97,165,78,0,-751,-4,-5,11,-2,-9
-19,-14,87,161,82,19,-741,-9,5,16,-12,-4
-19,-14,82,161,82,19,-741,-9,5,16,-12,-4
-14,-4,73,161,78,29,-761,-4,10,9,-12,3
-4,-9,68,161,82,34,-761,-4,-5,6,0,-7
9,14,78,165,97,34,-746,4,5,-11,2,9
9,19,73,170,107,34,-746,4,10,-14,0,14
9,14,73,170,112,39,-746,4,5,-11,2,9
0,19,68,165,112,39,-756,4,19,-9,-9,19
-9,9,63,175,112,53,-741,4,18,0,-13,13
-19,0,63,175,117,63,-722,9,19,9,-19,9
-14,-4,63,185,126,68,-717,14,10,9,-12,3
-9,-9,58,170,131,73,-707,14,0,9,-4,-4
9,19,58,185,156,82,-692,24,10,-14,0,14
34,9,63,185,161,92,-678,29,-25,-21,29,-8
34,9,63,180,161,92,-668,29,-25,-21,29,-8
34,-4,53,180,161,92,-658,29,-38,-15,36,-21
43,-14,43,175,165,97,-658,19,-57,-14,50,-35
53,-9,39,175,170,102,-649,24,-62,-22,57,-35
48,-9,39,175,175,112,-649,24,-57,-19,52,-33
43,-9,39,175,180,112,-649,29,-52,-17,47,-30
63,14,34,185,190,131,-644,39,-49,-38,56,-17
92,29,39,185,200,136,-624,48,-63,-60,77,-17
122,58,43,185,214,146,-614,53,-64,-90,93,-3
146,82,43,180,224,156,-595,63,-64,-114,105,9
117,58,34,170,219,146,-619,58,-59,-87,88,0
107,43,19,165,209,141,-624,53,-64,-75,85,-10
73,4,9,156,204,141,-629,48,-69,-38,71,-32
78,0,9,156,200,141,-644,43,-78,-39,78,-39
63,-9,0,146,209,146,-644,34,-72,-27,67,-40
78,-9,0,141,209,146,-629,39,-87,-34,82,-48
82,4,4,136,209,151,-629,53,-78,-43,80,-37
87,24,4,122,209,161,-629,53,-63,-55,75,-19
122,34,4,122,214,151,-629,53,-88,-78,105,-27
126,34,0,126,214,146,-639,58,-92,-80,109,-29
126,34,-9,126,204,141,-658,58,-92,-80,109,-29
122,9,-9,117,190,131,-678,43,-113,-65,117,-52
102,-4,-19,102,180,136,-688,39,-106,-49,104,-55
112,0,-19,92,175,136,-692,43,-112,-56,112,-56
117,19,-29,87,175,131,-688,48,-98,-68,107,-39
126,43,-29,87,175,131,-707,43,-83,-84,104,-20
122,29,-29,97,170,126,-732,24,-93,-75,107,-32
112,19,-29,87,161,112,-722,24,-93,-65,102,-37
102,19,-34,82,151,107,-741,29,-83,-60,92,-32
92,14,-39,82,141,97,-756,29,-78,-53,85,-32
87,14,-39,73,141,102,-766,29,-73,-50,80,-29
78,-4,-39,68,131,102,-775,29,-82,-37,80,-43
58,-9,-39,63,126,87,-775,24,-67,-24,62,-38
48,-29,-39,58,122,78,-771,24,-77,-9,62,-53
68,-9,-34,68,117,78,-761,24,-77,-29,72,-43
92,19,-29,63,117,73,-761,24,-73,-55,82,-27
117,39,-24,63,112,68,-761,24,-78,-78,97,-19
131,58,-19,68,107,73,-766,29,-73,-94,102,-7
112,48,-24,58,87,58,-785,14,-64,-80,88,-8
102,39,-19,58,82,53,-785,9,-63,-70,82,-12
92,24,-24,58,78,48,-766,14,-68,-58,80,-22
78,14,-29,53,68,34,-766,0,-64,-46,71,-25
48,-14,-34,43,53,24,-771,-4,-62,-17,55,-38
29,-34,-34,34,43,9,-771,-9,-63,2,46,-48
24,-39,-29,43,43,4,-771,-9,-63,7,43,-51
9,-43,-24,43,39,4,-771,-9,-52,17,30,-47
29,-29,-9,58,43,14,-756,0,-58,0,43,-43
53,-4,-9,58,48,14,-756,4,-57,-24,55,-30
53,-14,-14,53,43,4,-756,4,-67,-19,60,-40
39,-24,-14,53,48,0,-746,0,-63,-7,51,-43
19,-29,-14,48,34,-4,-761,-14,-48,5,33,-38
-4,-58,-19,39,19,-14,-780,-24,-54,31,25,-56
-29,-92,-24,24,9,-34,-795,-29,-63,60,17,-77
-43,-87,-29,14,0,-39,-800,-34,-44,65,0,-65
-29,-58,-9,34,4,-34,-785,-19,-29,43,0,-43
-19,-48,0,43,9,-29,-790,-14,-29,33,5,-38
-9,-14,14,53,9,-29,-775,-9,-5,11,-2,-9
9,-19,19,58,14,-24,-761,-4,-28,5,18,-23
9,-19,29,73,24,-24,-751,14,-28,5,18,-23
14,4,43,73,19,-19,-766,14,-10,-9,12,-3
48,43,48,78,19,-14,-766,14,-5,-45,26,19
73,68,58,82,29,-9,-766,14,-5,-70,39,31
48,48,34,68,14,-24,-775,4,0,-48,24,24
9,19,29,63,-4,-39,-790,-4,10,-14,0,14
-14,-9,24,48,-14,-53,-805,-24,5,11,-9,-2
-43,-43,24,43,-24,-63,-810,-43,0,43,-21,-21
-34,-34,29,53,-19,-63,-805,-29,0,34,-17,-17
-24,-9,29,53,-19,-58,-800,-19,15,16,-19,3
-24,-19,29,63,-14,-53,-800,-14,5,21,-14,-7
-53,-43,34,68,-14,-53,-795,-19,10,48,-31,-16
-53,-29,43,78,-4,-43,-800,-9,24,41,-38,-2
-4,9,53,78,-9,-43,-800,-4,13,-2,-8,11
24,24,53,78,-19,-48,-790,-4,0,-24,12,12
48,39,53,78,-24,-53,-780,-9,-9,-43,28,15
24,19,53,68,-24,-63,-780,-19,-5,-21,14,7
0,0,53,73,-24,-63,-780,-19,0,0,0,0
-19,-14,63,78,-24,-63,-785,-14,5,16,-12,-4
-43,-34,63,78,-24,-73,-785,-14,9,38,-26,-12
-29,-19,53,68,-43,-82,-780,-29,10,24,-19,-4
-43,-24,53,63,-43,-82,-780,-29,19,33,-31,-2
-39,-24,53,63,-43,-82,-790,-29,15,31,-27,-4
-43,-29,58,68,-43,-87,-780,-34,14,36,-28,-7
-68,-48,48,58,-58,-92,-775,-39,20,58,-44,-14
-87,-78,43,58,-68,-97,-775,-53,9,82,-48,-34
-112,-97,34,58,-73,-112,-785,-58,15,104,-63,-41
-146,-112,29,58,-73,-117,-785,-58,34,129,-90,-39
-112,-92,34,73,-58,-102,-761,-43,20,102,-66,-36
-82,-73,43,78,-58,-102,-746,-39,9,77,-45,-32
-87,-53,58,82,-53,-97,-741,-34,34,70,-60,-9
-73,-19,68,92,-48,-87,-732,-24,54,46,-63,17
-63,-14,63,92,-43,-82,-736,-14,49,38,-56,17
-58,-14,73,87,-43,-82,-736,-19,44,36,-51,15
-63,-19,73,82,-48,-87,-746,-34,44,41,-53,12
-78,-34,68,78,-53,-107,-756,-48,44,56,-61,5
-73,-53,68,78,-63,-117,-746,-48,20,63,-46,-16
-82,-78,68,78,-73,-117,-761,-48,4,80,-43,-37
-107,-92,63,73,-73,-122,-766,-53,15,99,-61,-38
-131,-92,63,68,-73,-122,-775,-58,39,111,-85,-26
-122,-78,73,78,-58,-112,-775,-48,44,100,-83,-17
-92,-53,78,87,-48,-107,-775,-39,39,72,-65,-7
-58,-4,78,92,-39,-97,-775,-29,54,31,-56,25
-34,9,82,97,-39,-97,-775,-29,43,12,-38,26
-48,9,87,97,-39,-97,-795,-19,57,19,-52,33
-39,9,87,97,-34,-87,-780,-19,48,15,-43,28
-34,19,107,102,-34,-68,-780,-19,53,7,-43,36
-4,48,112,117,-19,-68,-775,0,52,-22,-28,50
-29,34,102,117,-24,-78,-785,-14,63,-2,-46,48
-48,19,97,112,-29,-87,-790,-19,67,14,-57,43
-68,4,87,107,-34,-92,-800,-24,72,32,-70,38
-58,0,102,112,-29,-92,-805,-24,58,29,-58,29
9,63,131,136,0,-58,-790,-9,54,-36,-22,58
9,82,141,151,9,-39,-771,9,73,-45,-32,77
-9,53,131,151,0,-48,-761,9,62,-22,-35,57
-24,24,122,131,-14,-68,-761,-14,48,0,-36,36
-68,-19,107,126,-29,-87,-771,-29,49,43,-58,15
-58,-9,107,126,-29,-78,-761,-29,49,33,-53,20
-58,-9,107,126,-29,-78,-761,-29,49,33,-53,20
-58,-9,107,126,-29,-78,-761,-29,49,33,-53,20
-58,-9,107,126,-29,-78,-761,-29,49,33,-53,20
-58,-19,107,117,-24,-82,-751,-34,39,38,-48,10
-68,-19,112,122,-19,-78,-751,-34,49,43,-58,15
-68,-29,117,126,-14,-73,-741,-24,39,48,-53,5
-82,-39,117,126,-14,-63,-741,-24,43,60,-62,2
-58,-19,126,136,-4,-53,-732,-19,39,38,-48,10
-63,-4,131,131,-9,-53,-727,-14,59,33,-61,27
-53,9,131,131,0,-43,-717,-4,62,22,-57,35
-29,48,131,136,9,-34,-702,4,77,-9,-53,62
-14,43,112,131,0,-43,-712,0,57,-14,-35,50
9,43,102,122,0,-43,-712,0,34,-26,-12,38
-14,34,92,112,9,-48,-712,0,48,-10,-31,41
-24,24,82,107,0,-53,-712,-4,48,0,-36,36
-53,14,78,112,-14,-43,-712,4,67,19,-60,40
-53,9,73,102,-14,-43,-712,4,62,22,-57,35
-43,4,63,97,-14,-48,-712,4,47,19,-45,25
-24,14,63,97,-14,-48,-722,4,38,5,-31,26
-4,34,68,97,0,-34,-722,19,38,-15,-21,36
24,53,73,102,4,-29,-717,29,29,-38,-2,41
34,63,63,97,9,-19,-707,19,29,-48,2,46
34,48,53,87,4,-34,-702,14,14,-41,10,31
24,29,48,82,-14,-48,-727,0,5,-26,9,17
48,29,39,68,-14,-53,-732,0,-19,-38,33,5
39,39,29,58,-19,-58,-732,0,0,-39,19,19
34,29,29,53,-19,-58,-727,0,-5,-31,19,12
19,19,24,63,-19,-58,-736,-9,0,-19,9,9
14,4,24,58,-24,-63,-756,-14,-10,-9,12,-3
-4,0,19,53,-34,-63,-766,-19,4,2,-4,2
-9,0,19,53,-34,-63,-766,-19,9,4,-9,4
-14,-14,9,53,-39,-58,-771,-19,0,14,-7,-7
-14,-9,24,58,-34,-58,-775,-14,5,11,-9,-2
-19,-14,34,63,-29,-58,-790,-14,5,16,-12,-4
-19,-14,34,63,-29,-58,-795,-14,5,16,-12,-4
4,9,39,63,-19,-53,-780,-4,5,-6,0,7
0,4,43,63,-24,-53,-790,-14,4,-2,-2,4
14,19,48,63,-29,-48,-785,-14,5,-16,4,12
29,34,53,63,-34,-48,-771,-9,5,-31,12,19
4,9,39,58,-43,-63,-775,-14,5,-6,0,7
-14,-4,34,53,-48,-68,-790,-29,10,9,-12,3
-63,-39,29,39,-63,-82,-814,-43,24,51,-43,-7
-107,-82,24,29,-63,-87,-819,-63,25,94,-66,-28
-92,-68,24,29,-63,-78,-800,-48,24,80,-58,-22
-78,-53,29,29,-63,-78,-800,-43,25,65,-51,-14
-73,-39,34,34,-63,-82,-800,-43,34,56,-53,-2
-53,-24,34,39,-58,-82,-800,-39,29,38,-41,2
-34,-4,43,53,-53,-78,-790,-34,30,19,-32,13
-19,4,53,53,-53,-73,-790,-34,23,7,-21,13
-4,19,58,58,-53,-73,-780,-24,23,-7,-13,21
0,19,58,58,-53,-73,-780,-24,19,-9,-9,19
-19,-14,53,48,-63,-92,-775,-39,5,16,-12,-4
-39,-43,43,43,-68,-92,-775,-43,-4,41,-17,-23
-73,-63,39,39,-73,-92,-771,-43,10,68,-41,-26
-107,-78,29,34,-78,-92,-761,-43,29,92,-68,-24
-92,-68,39,34,-73,-102,-751,-34,24,80,-58,-22
-82,-58,39,29,-78,-107,-741,-43,24,70,-53,-17
-68,-43,39,29,-78,-107,-732,-43,25,55,-46,-9
-53,-34,39,29,-73,-107,-712,-43,19,43,-36,-7
-58,-39,24,19,-78,-117,-683,-48,19,48,-38,-10
-63,-48,24,24,-78,-112,-673,-53,15,55,-39,-16
-68,-53,19,24,-78,-112,-668,-58,15,60,-41,-19
-73,-48,14,19,-78,-117,-658,-63,25,60,-49,-11
-92,-58,19,29,-87,-112,-634,-53,34,75,-63,-12
-92,-68,19,29,-87,-112,-610,-53,24,80,-58,-22
-87,-58,24,29,-87,-112,-585,-53,29,72,-58,-14
-78,-39,34,29,-82,-107,-561,-48,39,58,-58,0
-87,-39,24,34,-82,-107,-527,-58,48,63,-67,4
-87,-63,24,34,-82,-107,-517,-58,24,75,-55,-19
-107,-87,19,24,-87,-117,-507,-63,20,97,-63,-33
-107,-102,14,19,-97,-122,-502,-68,5,104,-56,-48
-92,-92,14,19,-97,-112,-478,-58,0,92,-46,-46
-87,-78,19,24,-92,-107,-444,-58,9,82,-48,-34
-63,-48,29,24,-92,-102,-419,-58,15,55,-39,-16
-58,-29,39,24,-87,-102,-395,-53,29,43,-43,0
-48,-29,43,34,-82,-97,-356,-43,19,38,-33,-5
-58,-39,48,39,-78,-92,-326,-43,19,48,-38,-10
-78,-43,53,39,-78,-87,-302,-43,35,60,-56,-4
-78,-43,63,43,-73,-87,-287,-43,35,60,-56,-4
-92,-63,43,34,-73,-87,-239,-39,29,77,-60,-17
-63,-14,53,34,-63,-87,-204,-24,49,38,-56,17
-68,9,63,48,-63,-78,-204,-14,77,29,-72,43
-102,-39,78,63,-73,-102,-224,-29,63,70,-82,12
-146,-92,97,92,-78,-117,-229,-39,54,119,-100,-19
-151,-112,117,122,-53,-117,-234,-53,39,131,-95,-36
-126,-87,126,156,-29,-107,-244,-63,39,106,-82,-24
-87,-48,126,185,9,-78,-219,-53,39,67,-63,-4
-29,-9,122,195,78,-14,-165,-24,20,19,-24,5
-14,-9,87,170,146,63,-112,9,5,11,-9,-2
9,4,48,131,224,156,-73,48,-5,-6,7,0
58,48,24,102,317,273,-19,97,-10,-53,34,19
102,87,-24,48,405,400,58,161,-15,-94,58,36
175,141,-73,-4,497,551,151,244,-34,-158,104,53
283,200,-170,-97,595,692,244,317,-83,-241,183,58
385,219,-326,-283,649,834,322,385,-166,-302,275,26
483,258,-497,-478,702,985,414,448,-225,-370,354,16
575,336,-639,-639,775,1137,536,531,-239,-455,407,48
673,429,-771,-785,834,1278,639,624,-244,-551,458,92
766,512,-888,-927,858,1371,707,702,-254,-639,510,129
814,551,-980,-1049,834,1400,727,732,-263,-682,538,144
805,512,-1068,-1185,732,1302,692,697,-293,-658,549,109
790,468,-1146,-1307,512,1078,600,634,-322,-629,556,73
741,434,-1166,-1395,239,800,468,556,-307,-587,524,63
663,361,-1161,-1415,9,531,351,468,-302,-512,482,29
585,263,-1156,-1415,-180,287,239,375,-322,-424,453,-29
478,131,-1141,-1410,-380,48,107,268,-347,-304,412,-108
380,19,-1098,-1356,-585,-200,-53,151,-361,-199,370,-171
317,-63,-1024,-1302,-756,-395,-185,58,-380,-127,348,-221
297,-117,-951,-1215,-834,-488,-258,0,-414,-90,355,-265
292,-97,-854,-1083,-790,-468,-263,-14,-389,-97,340,-243
287,-34,-722,-912,-683,-405,-268,-4,-321,-126,304,-177
258,-24,-605,-756,-575,-366,-292,-19,-282,-117,270,-153
200,-78,-531,-639,-517,-356,-312,-53,-278,-61,239,-178
151,-112,-458,-541,-463,-331,-317,-63,-263,-19,207,-187
102,-112,-366,-424,-400,-297,-331,-58,-214,5,158,-163
53,-122,-292,-341,-341,-278,-351,-68,-175,34,114,-148
29,-126,-239,-273,-287,-253,-351,-68,-155,48,92,-140
53,-68,-185,-209,-234,-214,-341,-53,-121,7,87,-94
58,-29,-126,-141,-175,-180,-341,-48,-87,-14,72,-58
48,-29,-82,-97,-151,-156,-331,-43,-77,-9,62,-53
78,4,-48,-58,-131,-136,-322,-43,-74,-41,76,-35
68,43,-24,-14,-102,-122,-297,-34,-25,-55,46,9
-9,0,0,14,-87,-122,-292,-34,9,4,-9,4
-53,-48,4,24,-82,-131,-297,-63,5,50,-29,-21
-82,-87,9,24,-73,-126,-302,-63,-5,84,-38,-46
-87,-87,19,29,-68,-122,-307,-63,0,87,-43,-43
-78,-78,29,39,-58,-112,-312,-58,0,78,-39,-39
-68,-68,29,43,-48,-92,-307,-48,0,68,-34,-34
-58,-34,43,53,-43,-87,-287,-48,24,46,-41,-5
-53,-39,48,63,-34,-87,-283,-48,14,46,-33,-12
-43,-29,48,68,-29,-87,-268,-48,14,36,-28,-7
-53,-34,43,68,-34,-97,-278,-53,19,43,-36,-7
-53,-39,48,68,-34,-102,-268,-58,14,46,-33,-12
-73,-53,43,63,-43,-97,-253,-58,20,63,-46,-16
-92,-78,39,63,-53,-102,-253,-58,14,85,-53,-32
-87,-73,39,63,-48,-92,-253,-58,14,80,-50,-29
-92,-68,43,68,-43,-92,-244,-58,24,80,-58,-22
-92,-68,43,73,-39,-92,-244,-58,24,80,-58,-22
-92,-63,48,73,-34,-87,-248,-63,29,77,-60,-17
-107,-63,48,63,-43,-97,-258,-63,44,85,-75,-9
-107,-63,48,68,-34,-97,-258,-63,44,85,-75,-9
-112,-53,48,78,-29,-87,-258,-58,59,82,-85,3
-112,-48,48,68,-29,-87,-248,-58,64,80,-88,8
-97,-48,53,78,-19,-82,-239,-63,49,72,-73,0
-73,-48,53,78,-14,-78,-244,-63,25,60,-49,-11
-58,-48,58,78,-14,-73,-244,-58,10,53,-34,-19
-43,-39,58,82,-14,-68,-244,-58,4,41,-23,-17
-9,0,73,102,0,-53,-229,-48,9,4,-9,4
-4,19,78,107,4,-48,-234,-43,23,-7,-13,21
-14,34,78,112,4,-39,-229,-34,48,-10,-31,41
-9,53,73,117,9,-48,-224,-29,62,-22,-35,57
-29,29,58,102,9,-58,-219,-43,58,0,-43,43
-39,0,53,97,9,-58,-224,-48,39,19,-39,19
-48,-14,48,97,-4,-63,-224,-48,34,31,-41,10
-48,-24,43,102,4,-63,-224,-43,24,36,-36,0
-82,-34,53,107,9,-63,-214,-53,48,58,-65,7
-73,-34,53,107,9,-63,-214,-53,39,53,-56,2
-73,-43,53,107,9,-63,-214,-53,30,58,-51,-6
-73,-68,53,107,9,-68,-214,-58,5,70,-39,-31
-53,-43,68,122,29,-58,-190,-48,10,48,-31,-16
-53,-29,73,126,34,-43,-190,-29,24,41,-38,-2
-29,-14,78,136,53,-24,-170,-19,15,21,-22,0
9,9,82,141,58,-9,-156,-9,0,-9,4,4
9,19,78,151,53,-19,-165,-9,10,-14,0,14
-4,24,78,151,58,-19,-156,-4,28,-10,-16,26
-4,29,78,151,73,-14,-165,-4,33,-12,-18,31
9,43,82,156,73,-4,-165,-4,34,-26,-12,38
0,24,82,146,63,0,-165,-9,24,-12,-12,24
-19,0,78,141,58,-4,-170,-4,19,9,-19,9
-24,-29,78,141,58,-9,-170,-9,-5,26,-9,-17
-58,-53,73,151,63,-14,-170,-19,5,55,-31,-24
-68,-63,58,146,63,-14,-180,-24,5,65,-36,-29
-73,-68,53,146,58,-19,-190,-34,5,70,-39,-31
-78,-78,48,141,63,-24,-204,-39,0,78,-39,-39
-87,-82,48,136,68,-19,-204,-34,5,84,-46,-38
-68,-53,68,146,82,4,-180,-24,15,60,-41,-19
-48,-34,73,151,92,9,-165,-19,14,41,-31,-10
-24,-4,73,156,97,24,-170,-9,20,14,-22,8
4,9,78,161,112,34,-156,-4,5,-6,0,7
24,24,87,175,117,53,-126,0,0,-24,12,12
29,29,82,180,126,53,-112,4,0,-29,14,14
34,24,82,180,131,58,-97,9,-10,-29,22,7
29,29,78,175,131,58,-92,14,0,-29,14,14
4,4,68,161,126,48,-73,0,0,-4,2,2
-9,-9,63,156,126,53,-48,0,0,9,-4,-4
-9,-19,58,161,131,53,-39,0,-10,14,0,-14
-9,-29,48,141,131,53,-24,-4,-20,19,5,-24
-19,-24,43,146,136,58,-14,-14,-5,21,-7,-14
-14,-48,43,146,141,63,4,-9,-34,31,10,-41
-34,-63,39,141,141,58,19,-9,-29,48,-2,-46
-53,-92,24,141,141,53,34,-9,-39,72,-7,-65
-9,-48,34,165,175,82,48,4,-39,28,15,-43
34,-9,39,175,190,102,73,24,-43,-12,38,-26
63,24,48,185,204,126,87,39,-39,-43,51,-7
92,58,58,195,219,141,102,58,-34,-75,63,12
87,43,39,190,214,136,102,58,-44,-65,65,0
102,39,39,185,219,136,117,58,-63,-70,82,-12
117,48,39,180,229,141,122,53,-69,-82,93,-10
126,53,34,170,234,146,136,53,-73,-89,99,-10
112,48,24,170,224,146,112,43,-64,-80,88,-8
107,43,9,165,219,141,107,43,-64,-75,85,-10
78,14,0,156,219,141,102,43,-64,-46,71,-25
87,19,0,156,219,141,87,43,-68,-53,77,-24
92,29,0,146,209,141,82,34,-63,-60,77,-17
117,29,0,141,209,136,92,39,-88,-73,102,-29
131,43,4,136,209,136,87,53,-88,-87,109,-22
146,63,4,122,209,141,82,53,-83,-104,114,-10
146,53,-4,126,214,136,68,48,-93,-99,119,-20
126,43,-9,126,214,136,53,48,-83,-84,104,-20
102,34,-19,122,204,136,29,43,-68,-68,85,-17
73,0,-19,107,190,131,4,24,-73,-36,73,-36
82,0,-19,107,185,136,9,34,-82,-41,82,-41
102,9,-19,102,185,136,9,43,-93,-55,97,-42
117,34,-29,102,190,131,19,53,-83,-75,100,-24
136,63,-29,107,195,131,4,53,-73,-99,104,-5
146,58,-29,107,190,131,-19,43,-88,-102,117,-15
141,48,-29,97,180,122,-9,43,-93,-94,117,-22
136,48,-34,92,170,122,-29,48,-88,-92,112,-20
131,43,-39,92,161,117,-43,48,-88,-87,109,-22
107,24,-48,82,151,102,-53,29,-83,-65,95,-29
87,-4,-48,78,141,102,-63,29,-91,-41,89,-47
58,-19,-48,73,136,87,-63,24,-77,-19,67,-48
39,-48,-48,68,131,78,-58,24,-87,4,63,-67
63,-29,-48,73,122,82,-63,19,-92,-17,77,-60
82,-9,-48,63,117,73,-68,14,-91,-36,86,-50
102,0,-48,58,107,63,-73,9,-102,-51,102,-51
112,9,-48,58,97,63,-82,9,-103,-60,107,-47
102,4,-39,63,97,73,-87,19,-98,-53,100,-47
92,0,-29,68,102,73,-82,19,-92,-46,92,-46
82,-9,-29,73,107,73,-58,29,-91,-36,86,-50
68,-14,-29,73,107,63,-53,19,-82,-27,75,-48
29,-34,-43,58,82,53,-68,4,-63,2,46,-48
9,-53,-43,43,73,39,-68,0,-62,22,35,-57
4,-58,-39,48,73,34,-68,0,-62,27,33,-60
-9,-63,-34,43,68,34,-68,0,-54,36,22,-58
43,-19,-14,63,73,48,-48,14,-62,-12,52,-40
92,34,-9,68,78,53,-43,24,-58,-63,75,-12
117,53,-9,68,73,48,-39,29,-64,-85,90,-5
126,73,-4,73,78,48,-24,29,-53,-99,89,10
92,58,-4,63,63,34,-24,14,-34,-75,63,12
53,9,-9,58,48,24,-39,4,-44,-31,48,-17
14,-43,-14,48,39,4,-48,0,-57,14,35,-50
-14,-58,-19,43,29,0,-48,-4,-44,36,15,-51
-9,-34,-14,48,29,0,-39,-14,-25,21,8,-29
-9,-29,-9,53,29,0,-48,-14,-20,19,5,-24
-9,0,0,58,24,-4,-39,-14,9,4,-9,4
0,-9,0,58,24,-4,-29,-14,-9,4,4,-9
0,-14,0,53,34,0,-29,4,-14,7,7,-14
-4,-4,14,53,29,0,-43,4,0,4,-2,-2
19,19,19,58,29,0,-43,4,0,-19,9,9
34,29,29,63,39,0,-43,4,-5,-31,19,12
9,-4,4,58,14,-4,-48,-9,-13,-2,11,-8
-39,-39,0,53,-4,-19,-68,-14,0,39,-19,-19
-73,-73,-4,39,-14,-34,-87,-29,0,73,-36,-36
-112,-112,-4,34,-24,-43,-97,-43,0,112,-56,-56
-73,-82,14,48,-19,-39,-87,-34,-9,77,-32,-45
-34,-29,19,53,-9,-29,-87,-19,5,31,-19,-12
-4,-9,24,68,4,-19,-92,-9,-5,6,0,-7
-4,-4,34,78,14,-14,-92,-9,0,4,-2,-2
-19,0,43,87,24,-14,-102,-4,19,9,-19,9
4,29,53,87,19,-14,-107,4,25,-16,-10,27
9,34,53,87,9,-19,-102,9,25,-21,-8,29
9,39,53,87,4,-24,-97,9,30,-24,-10,34
-39,-9,34,68,-14,-43,-117,-9,30,24,-34,10
-78,-58,14,53,-34,-63,-136,-29,20,68,-49,-19
-112,-102,4,39,-53,-82,-161,-43,10,107,-61,-46
-151,-151,-14,19,-73,-112,-180,-63,0,151,-75,-75
-102,-107,0,34,-58,-97,-151,-53,-5,104,-48,-56
-82,-73,14,43,-43,-82,-136,-39,9,77,-45,-32
-43,-34,29,58,-29,-68,-131,-24,9,38,-26,-12
-14,0,48,78,-14,-58,-107,-14,14,7,-14,7
-19,9,63,87,-24,-58,-92,-14,28,5,-23,18
-19,9,63,87,-29,-58,-92,-24,28,5,-23,18
-24,19,58,87,-29,-68,-102,-24,43,2,-33,31
-39,34,58,87,-24,-68,-102,-19,73,2,-56,53
-29,19,43,78,-24,-58,-92,-19,48,5,-38,33
-14,14,43,78,-29,-63,-82,-19,28,0,-21,21
-34,9,48,78,-29,-63,-82,-19,43,12,-38,26
-34,19,48,82,-29,-58,-78,-14,53,7,-43,36
-29,9,48,82,-24,-63,-87,-4,38,10,-33,23
-29,4,53,78,-24,-63,-92,-9,33,12,-31,18
-39,-4,48,73,-29,-68,-107,-24,35,21,-37,15
-58,-24,39,68,-34,-87,-122,-39,34,41,-46,5
-82,-48,43,73,-34,-78,-117,-39,34,65,-58,-7
-102,-78,48,78,-43,-78,-126,-39,24,90,-63,-27
-136,-97,48,78,-43,-82,-126,-43,39,116,-87,-29
-170,-102,53,78,-43,-82,-131,-48,68,136,-119,-17
-151,-82,63,78,-39,-82,-141,-39,69,116,-110,-6
-122,-63,68,87,-29,-78,-141,-29,59,92,-90,-2
-87,-19,68,92,-19,-68,-141,-19,68,53,-77,24
-63,-9,73,97,-19,-68,-141,-19,54,36,-58,22
-78,-9,73,97,-29,-73,-156,-29,69,43,-73,30
-68,-9,68,97,-24,-68,-146,-29,59,38,-63,25
-63,0,82,102,-24,-53,-151,-29,63,31,-63,31
-34,29,82,117,-9,-58,-151,-9,63,2,-48,46
-63,24,87,112,-9,-53,-146,-19,87,19,-75,55
-78,19,87,112,-9,-58,-146,-19,97,29,-87,58
-92,14,82,112,-9,-58,-151,-19,106,39,-99,60
-78,19,102,122,0,-53,-151,-14,97,29,-87,58
-126,-63,82,117,-19,-68,-156,-29,63,94,-94,0
-185,-122,63,102,-39,-78,-165,-48,63,153,-124,-29
-234,-165,48,87,-58,-87,-165,-68,69,199,-151,-48
-200,-122,58,97,-43,-68,-146,-48,78,161,-139,-22
-165,-87,68,107,-29,-58,-136,-39,78,126,-121,-4
-131,-53,78,117,-14,-48,-126,-29,78,92,-104,12
-97,-19,87,126,0,-39,-117,-19,78,58,-87,29
-48,34,107,141,24,-19,-102,-4,82,7,-65,58
-9,78,122,161,39,-9,-97,4,87,-34,-48,82
39,112,136,180,53,0,-82,24,73,-75,-17,92
73,146,146,195,63,14,-78,34,73,-109,0,109
43,102,141,180,48,-4,-92,14,59,-72,-8,80
-4,63,131,161,29,-14,-102,4,67,-29,-35,65
-39,24,117,146,24,-14,-107,0,63,7,-51,43
-58,9,102,136,19,-14,-107,-4,67,24,-62,38
-14,34,92,126,9,-9,-122,-14,48,-10,-31,41
19,43,82,122,9,-4,-126,-9,24,-31,-2,33
4,43,73,117,19,-4,-131,-4,39,-23,-17,41
4,43,63,117,9,-4,-136,-4,39,-23,-17,41
-19,43,73,117,19,-4,-151,4,62,-12,-40,52
-24,48,73,112,24,-4,-156,4,72,-12,-48,60
-19,53,68,112,29,-9,-161,4,72,-17,-45,62
-4,73,73,117,34,-9,-175,4,77,-34,-40,75
14,82,63,102,24,-4,-195,19,68,-48,-27,75
34,92,63,102,24,0,-200,29,58,-63,-12,75
34,92,48,92,24,9,-200,19,58,-63,-12,75
24,68,34,78,14,-4,-204,14,44,-46,-10,56
14,48,29,78,4,-9,-234,9,34,-31,-10,41
39,48,19,68,4,-14,-244,9,9,-43,15,28
29,58,9,63,0,-19,-248,9,29,-43,0,43
24,48,9,63,0,-19,-248,9,24,-36,0,36
24,43,14,73,0,-19,-268,0,19,-33,2,31
24,24,14,68,-4,-24,-297,-4,0,-24,12,12
9,14,9,63,-14,-24,-317,-9,5,-11,2,9
9,9,9,63,-14,-24,-326,-9,0,-9,4,4
-14,-9,-4,58,-14,-24,-341,-14,5,11,-9,-2
-24,-9,4,58,-14,-29,-346,-14,15,16,-19,3
-39,-19,9,58,-14,-34,-361,-19,20,29,-29,0
-48,-24,4,53,-19,-39,-366,-24,24,36,-36,0
-34,-14,9,63,-9,-29,-370,-19,20,24,-27,3
-39,-24,14,63,-14,-34,-390,-24,15,31,-27,-4
-24,-14,19,63,-19,-34,-395,-19,10,19,-17,-2
-9,-4,24,63,-24,-39,-390,-9,5,6,-7,0
-4,4,24,53,-34,-43,-395,-9,8,0,-6,6
-4,4,24,53,-39,-48,-409,-19,8,0,-6,6
-34,-14,24,43,-53,-63,-434,-29,20,24,-27,3
-58,-43,24,39,-53,-68,-439,-43,15,50,-36,-14
-68,-68,9,34,-63,-73,-444,-58,0,68,-34,-34
-78,-73,9,29,-73,-78,-458,-63,5,75,-41,-34
-97,-78,9,29,-82,-87,-473,-73,19,87,-58,-29
-102,-82,4,29,-87,-92,-488,-78,20,92,-61,-31
-82,-53,9,39,-63,-78,-483,-63,29,67,-55,-12
-68,-34,24,43,-53,-63,-478,-53,34,51,-51,0
-53,-9,34,53,-43,-53,-463,-34,44,31,-48,17
-48,0,39,58,-34,-43,-458,-24,48,24,-48,24
-39,4,43,63,-29,-48,-453,-29,43,17,-41,23
-29,-4,43,63,-29,-43,-453,-24,25,16,-27,10
-34,-4,48,63,-29,-39,-448,-14,30,19,-32,13
-39,0,48,63,-29,-34,-439,-4,39,19,-39,19
-48,-9,34,58,-39,-48,-448,-14,39,28,-43,15
-53,-19,29,48,-48,-58,-458,-34,34,36,-43,7
-53,-24,24,43,-53,-63,-468,-43,29,38,-41,2
-53,-34,19,39,-53,-68,-468,-53,19,43,-36,-7
-87,-58,9,34,-63,-73,-458,-58,29,72,-58,-14
-112,-87,14,34,-68,-73,-468,-63,25,99,-68,-31
-136,-112,14,29,-73,-78,-483,-68,24,124,-80,-44
-161,-126,14,19,-78,-87,-492,-73,35,143,-98,-45
-136,-97,24,39,-73,-78,-488,-53,39,116,-87,-29
-102,-68,29,48,-58,-63,-473,-43,34,85,-68,-17
-63,-19,39,58,-43,-48,-458,-34,44,41,-53,12
-19,39,53,68,-24,-29,-444,-19,58,-10,-38,48
-34,29,39,63,-43,-48,-444,-29,63,2,-48,46
-48,-4,34,53,-53,-58,-458,-39,44,26,-46,20
-82,-39,24,34,-68,-78,-473,-53,43,60,-62,2
-97,-63,14,19,-87,-92,-492,-68,34,80,-65,-14
-102,-73,19,24,-82,-87,-497,-58,29,87,-65,-22
-107,-78,19,34,-73,-78,-492,-58,29,92,-68,-24
-92,-68,24,39,-68,-68,-497,-58,24,80,-58,-22
-97,-68,29,43,-58,-63,-502,-53,29,82,-63,-19
-102,-78,24,34,-68,-78,-507,-68,24,90,-63,-27
-117,-97,19,29,-78,-82,-512,-73,20,107,-68,-38
-141,-112,14,19,-92,-87,-522,-78,29,126,-85,-41
-146,-122,14,14,-102,-97,-541,-82,24,134,-85,-49
-141,-102,14,14,-92,-97,-541,-68,39,121,-90,-31
-112,-53,34,34,-92,-78,-517,-53,59,82,-85,3
-87,-29,53,39,-73,-68,-507,-24,58,58,-72,14
-63,9,87,82,-53,-63,-527,-19,72,27,-67,40
-39,34,107,122,-39,-68,-541,-29,73,2,-56,53
-53,4,107,151,-24,-78,-546,-53,57,24,-55,30
-68,-19,117,175,0,-68,-546,-63,49,43,-58,15
-68,0,126,204,48,-29,-541,-53,68,34,-68,34
-58,0,112,195,87,24,-536,-34,58,29,-58,29
-63,-29,68,161,146,82,-512,-19,34,46,-48,2
-58,-53,19,122,214,165,-453,19,5,55,-31,-24
9,-29,-4,92,297,283,-390,78,-38,10,23,-33
122,68,-34,68,385,409,-312,131,-54,-95,88,7
263,180,-82,24,497,561,-219,214,-83,-221,173,48
370,239,-170,-68,595,712,-117,297,-131,-304,250,54
444,278,-297,-214,658,844,-19,375,-166,-361,305,56
541,366,-429,-380,712,1005,63,448,-175,-453,358,95
634,444,-570,-551,766,1146,146,522,-190,-539,412,127
683,448,-732,-746,766,1239,219,575,-235,-565,459,106
727,453,-878,-907,751,1293,268,614,-274,-590,500,89
775,453,-971,-1049,736,1302,287,634,-322,-614,548,65
756,405,-1049,-1166,614,1195,244,610,-351,-580,553,27
712,361,-1127,-1278,405,980,170,566,-351,-536,531,5
712,366,-1146,-1356,161,722,68,517,-346,-539,529,10
712,380,-1112,-1376,-58,483,-58,458,-332,-546,522,24
653,341,-1078,-1366,-248,258,-190,366,-312,-497,482,14
536,219,-1073,-1381,-439,19,-331,248,-317,-377,426,-49
419,97,-1049,-1346,-644,-219,-473,122,-322,-258,370,-112
317,-14,-985,-1283,-805,-405,-595,19,-331,-151,324,-172
248,-87,-922,-1195,-863,-497,-678,-48,-335,-80,291,-211
195,-117,-854,-1093,-819,-488,-702,-53,-312,-39,253,-214
200,-102,-741,-922,-692,-414,-688,-34,-302,-49,251,-202
209,-73,-614,-746,-575,-346,-692,-29,-282,-68,245,-177
219,-39,-512,-619,-497,-307,-722,-34,-258,-90,238,-148
219,-24,-419,-502,-434,-283,-727,-53,-243,-97,231,-133
209,-14,-326,-395,-370,-258,-732,-68,-223,-97,216,-118
170,-4,-253,-312,-322,-239,-751,-68,-174,-83,172,-89
117,-9,-219,-253,-287,-224,-771,-78,-126,-54,121,-67
63,-29,-175,-209,-244,-195,-771,-73,-92,-17,77,-60
19,-39,-146,-170,-214,-180,-771,-78,-58,10,38,-48
0,-48,-141,-146,-200,-165,-771,-92,-48,24,24,-48
-58,-112,-117,-107,-170,-156,-780,-102,-54,85,-2,-83
-107,-151,-63,-53,-151,-141,-775,-102,-44,129,-31,-97
-126,-126,-19,-4,-117,-122,-741,-92,0,126,-63,-63
-122,-126,-4,9,-97,-122,-736,-107,-4,124,-59,-65
-122,-126,0,14,-82,-117,-732,-102,-4,124,-59,-65
-97,-87,9,24,-73,-112,-727,-97,10,92,-53,-38
-58,-39,19,39,-58,-102,-722,-87,19,48,-38,-10
-48,-34,19,53,-43,-87,-712,-68,14,41,-31,-10
-39,-4,34,63,-43,-78,-688,-68,35,21,-37,15
-34,-14,39,73,-39,-73,-678,-68,20,24,-27,3
-24,-9,39,78,-39,-68,-658,-68,15,16,-19,3
-58,-34,24,73,-34,-73,-663,-78,24,46,-41,-5
-73,-48,29,68,-34,-82,-658,-87,25,60,-49,-11
-107,-73,24,58,-43,-82,-649,-92,34,90,-70,-19
-141,-107,19,53,-53,-92,-653,-97,34,124,-87,-36
-112,-78,24,58,-39,-82,-639,-87,34,95,-73,-22
-92,-58,34,68,-34,-73,-624,-78,34,75,-63,-12
-68,-43,39,78,-29,-63,-619,-68,25,55,-46,-9
-43,-24,48,82,-24,-48,-619,-63,19,33,-31,-2
-48,-24,58,87,-19,-48,-644,-63,24,36,-36,0
-48,-24,58,97,-4,-48,-658,-63,24,36,-36,0
-53,-14,58,112,4,-39,-673,-58,39,33,-46,12
-53,-9,58,107,9,-39,-678,-58,44,31,-48,17
-78,-39,39,92,-4,-53,-702,-63,39,58,-58,0
-82,-58,34,78,-14,-58,-722,-73,24,70,-53,-17
-97,-78,34,63,-29,-63,-736,-78,19,87,-58,-29
-112,-87,29,53,-43,-68,-751,-87,25,99,-68,-31
-78,-48,43,78,-24,-53,-771,-87,30,63,-54,-9
-63,-29,48,87,-14,-48,-790,-82,34,46,-48,2
-63,-14,48,97,-9,-39,-800,-73,49,38,-56,17
-48,4,43,107,0,-48,-810,-68,52,22,-50,28
-58,-4,34,97,-9,-48,-819,-82,54,31,-56,25
-58,-29,34,87,-9,-48,-829,-87,29,43,-43,0
-58,-39,34,82,-24,-53,-834,-87,19,48,-38,-10
-48,-43,34,82,-14,-53,-839,-82,5,45,-26,-19
-68,-24,39,97,4,-43,-824,-73,44,46,-56,10
-53,-14,43,107,9,-43,-819,-73,39,33,-46,12
-48,-14,48,117,14,-43,-814,-73,34,31,-41,10
-43,-29,53,126,19,-48,-810,-78,14,36,-28,-7
-39,-39,43,117,19,-48,-795,-78,0,39,-19,-19
-53,-39,43,117,14,-43,-795,-68,14,46,-33,-12
-43,-39,43,122,24,-34,-775,-68,4,41,-23,-17
-19,-29,43,122,19,-29,-761,-68,-10,24,-4,-19
-39,-48,43,122,14,-43,-761,-82,-9,43,-15,-28
-73,-63,39,112,9,-48,-751,-82,10,68,-41,-26
-92,-78,34,102,14,-48,-761,-87,14,85,-53,-32
-97,-82,34,97,4,-43,-761,-92,15,89,-56,-33
-78,-63,43,102,24,-19,-746,-78,15,70,-46,-24
-68,-48,39,102,29,-14,-736,-63,20,58,-44,-14
-43,-39,39,107,39,-9,-722,-58,4,41,-23,-17
-48,-24,34,122,53,-4,-707,-58,24,36,-36,0
-29,-9,43,131,48,9,-697,-48,20,19,-24,5
-24,-9,43,136,48,9,-707,-53,15,16,-19,3
-19,-14,43,136,58,9,-722,-53,5,16,-12,-4
-19,-14,48,136,68,19,-722,-43,5,16,-12,-4
-14,0,53,141,78,19,-717,-53,14,7,-14,7
-9,4,53,141,82,19,-722,-58,13,2,-11,8
0,19,48,141,82,29,-746,-58,19,-9,-9,19
14,19,48,141,92,34,-751,-63,5,-16,4,12
9,14,58,136,92,34,-736,-58,5,-11,2,9
9,9,53,141,97,34,-736,-53,0,-9,4,4
9,-4,53,141,97,39,-736,-48,-13,-2,11,-8
0,-9,48,136,92,39,-746,-43,-9,4,4,-9
-19,-14,39,146,102,43,-741,-48,5,16,-12,-4
-29,-19,34,146,107,53,-722,-48,10,24,-19,-4
-24,-19,29,156,117,58,-717,-48,5,21,-14,-7
-19,-19,19,141,122,63,-707,-53,0,19,-9,-9
14,14,24,156,136,82,-692,-48,0,-14,7,7
43,9,34,156,141,92,-678,-39,-34,-26,38,-12
48,14,39,151,141,92,-668,-34,-34,-31,41,-10
53,4,34,151,141,92,-658,-29,-49,-28,51,-22
68,19,34,165,161,97,-653,-29,-49,-43,58,-15
82,29,29,165,170,102,-639,-24,-53,-55,67,-12
82,34,29,165,180,112,-634,-24,-48,-58,65,-7
82,39,29,165,190,112,-629,-19,-43,-60,62,-2
78,29,14,151,180,112,-619,-19,-49,-53,63,-10
92,19,9,146,180,117,-605,-19,-73,-55,82,-27
107,24,4,141,185,126,-600,-24,-83,-65,95,-29
117,24,-4,131,185,136,-585,-24,-93,-70,105,-34
92,14,-24,122,185,126,-590,-34,-78,-53,85,-32
78,4,-39,117,180,122,-595,-34,-74,-41,76,-35
39,-29,-48,107,180,122,-600,-34,-68,-5,53,-48
39,-29,-48,107,180,122,-614,-34,-68,-5,53,-48
58,-4,-34,112,185,131,-605,-29,-62,-27,60,-33
97,9,-29,112,190,136,-590,-19,-88,-53,92,-39
126,39,-19,112,195,146,-590,0,-87,-82,106,-24
156,73,-14,102,200,161,-590,4,-83,-114,119,-5
165,58,-19,97,185,151,-595,0,-107,-111,136,-24
146,43,-29,97,185,146,-610,0,-103,-94,124,-30
122,29,-43,92,175,141,-634,-4,-93,-75,107,-32
92,-9,-48,78,161,131,-658,-24,-101,-41,96,-55
82,-29,-58,63,146,122,-683,-39,-111,-26,96,-70
92,-29,-58,53,136,117,-692,-34,-121,-31,106,-75
97,-14,-68,48,131,107,-692,-29,-111,-41,104,-62
107,4,-68,48,126,102,-717,-34,-103,-55,105,-49
112,9,-48,68,136,92,-736,-53,-103,-60,107,-47
112,9,-48,58,131,82,-732,-53,-103,-60,107,-47
112,19,-53,53,126,82,-756,-48,-93,-65,102,-37
112,24,-58,53,122,78,-775,-48,-88,-68,100,-32
122,29,-58,63,112,82,-785,-48,-93,-75,107,-32
117,14,-58,58,102,82,-795,-48,-103,-65,110,-44
102,14,-58,53,97,68,-795,-53,-88,-58,95,-37
97,0,-58,48,92,58,-790,-53,-97,-48,97,-48
78,-14,-58,43,82,58,-780,-53,-92,-32,85,-53
63,-19,-58,34,78,53,-780,-53,-82,-22,72,-50
48,-34,-58,29,68,48,-780,-53,-82,-7,65,-58
24,-48,-58,29,58,53,-785,-48,-72,12,48,-60
48,-24,-58,24,63,48,-805,-58,-72,-12,60,-48
63,-9,-48,29,63,43,-805,-58,-72,-27,67,-40
78,0,-48,34,63,39,-785,-48,-78,-39,78,-39
87,14,-48,34,58,24,-785,-58,-73,-50,80,-29
48,-9,-68,14,34,24,-795,-73,-57,-19,52,-33
29,-34,-73,4,24,9,-800,-78,-63,2,46,-48
24,-43,-73,14,24,4,-805,-78,-67,9,45,-55
9,-53,-73,14,19,4,-810,-78,-62,22,35,-57
24,-34,-58,29,19,4,-805,-87,-58,5,41,-46
43,-14,-58,29,19,4,-805,-82,-57,-14,50,-35
39,-29,-63,24,9,-4,-805,-82,-68,-5,53,-48
19,-43,-63,24,9,-9,-795,-87,-62,12,40,-52
9,-34,-48,39,19,-9,-785,-87,-43,12,26,-38
-4,-48,-39,39,9,-14,-800,-92,-44,26,20,-46
-19,-68,-29,34,4,-29,-810,-92,-49,43,15,-58
-24,-48,-19,34,0,-29,-810,-92,-24,36,0,-36
-9,-39,-19,29,-4,-29,-810,-102,-30,24,10,-34
-9,-39,-19,34,-9,-29,-819,-102,-30,24,10,-34
-9,-14,-14,39,-19,-34,-810,-102,-5,11,-2,-9
0,-29,-19,39,-24,-34,-800,-102,-29,14,14,-29
-9,-29,-4,48,-9,-34,-795,-87,-20,19,5,-24
-14,-14,14,53,-9,-29,-805,-82,0,14,-7,-7
9,14,24,63,-4,-24,-800,-78,5,-11,2,9
24,29,39,73,9,-19,-795,-73,5,-26,9,17
14,19,24,73,0,-29,-810,-73,5,-16,4,12
-9,9,19,73,-14,-39,-829,-73,18,0,-13,13
-19,0,14,63,-19,-48,-849,-82,19,9,-19,9
-34,-14,14,63,-24,-53,-858,-92,20,24,-27,3
-34,-34,9,58,-34,-68,-878,-97,0,34,-17,-17
-34,-19,9,53,-39,-68,-888,-97,15,26,-24,-2
-43,-39,9,58,-39,-68,-902,-102,4,41,-23,-17
-82,-73,14,58,-43,-73,-912,-117,9,77,-45,-32
-102,-78,4,48,-53,-78,-932,-122,24,90,-63,-27
-73,-48,14,48,-58,-82,-936,-122,25,60,-49,-11
-63,-43,14,48,-68,-92,-932,-126,20,53,-41,-11
-58,-39,14,48,-73,-102,-927,-136,19,48,-38,-10
-43,-29,29,63,-68,-97,-902,-126,14,36,-28,-7
-39,-19,34,73,-63,-92,-897,-126,20,29,-29,0
-29,-4,48,82,-58,-87,-897,-122,25,16,-27,10
-24,4,53,87,-53,-92,-893,-122,28,10,-26,16
-24,14,53,78,-53,-92,-873,-126,38,5,-31,26
-43,4,53,73,-53,-92,-858,-126,47,19,-45,25
-43,0,53,73,-53,-92,-854,-126,43,21,-43,21
-53,-9,58,78,-53,-97,-829,-131,44,31,-48,17
-73,-29,58,68,-68,-102,-814,-141,44,51,-58,7
-87,-58,53,68,-78,-107,-814,-151,29,72,-58,-14
-107,-78,43,68,-82,-122,-824,-151,29,92,-68,-24
-136,-92,39,68,-82,-126,-824,-146,44,114,-90,-24
-141,-107,34,63,-97,-131,-819,-156,34,124,-87,-36
-131,-112,34,58,-107,-141,-814,-156,19,121,-75,-46
-156,-117,39,53,-112,-146,-819,-156,39,136,-97,-39
-161,-107,39,53,-117,-146,-819,-151,54,134,-107,-26
-112,-78,43,63,-92,-131,-819,-136,34,95,-73,-22
-87,-53,53,68,-82,-122,-824,-136,34,70,-60,-9
-73,-34,53,73,-78,-117,-839,-146,39,53,-56,2
-68,-24,48,78,-73,-126,-854,-156,44,46,-56,10
-68,-19,53,92,-68,-122,-844,-141,49,43,-58,15
-73,-39,58,97,-73,-117,-858,-136,34,56,-53,-2
-92,-48,58,97,-68,-117,-863,-136,44,70,-68,-2
-112,-43,63,97,-63,-112,-873,-136,69,77,-90,13
-131,-58,58,82,-63,-122,-883,-141,73,94,-102,7
-122,-63,58,87,-58,-117,-883,-136,59,92,-90,-2
-107,-43,53,87,-53,-107,-883,-131,64,75,-85,10
-102,-58,53,87,-58,-107,-883,-136,44,80,-73,-7
-107,-43,73,102,-48,-107,-873,-136,64,75,-85,10
-87,-29,78,107,-43,-97,-849,-136,58,58,-72,14
-73,-4,102,117,-43,-78,-839,-136,69,38,-71,32
-34,39,112,136,-29,-78,-824,-117,73,-2,-53,56
-4,58,131,151,-9,-63,-780,-97,62,-27,-33,60
-68,0,117,131,-19,-68,-780,-107,68,34,-68,34
-131,-58,97,112,-39,-78,-775,-126,73,94,-102,7
-117,-39,97,107,-39,-78,-761,-126,78,78,-97,19
-97,-14,107,112,-24,-73,-756,-112,83,55,-90,34
-78,0,107,117,-19,-68,-751,-107,78,39,-78,39
-58,14,107,122,-14,-63,-746,-102,72,22,-65,43
-39,29,107,126,-9,-58,-741,-97,68,5,-53,48
-43,19,112,131,-4,-53,-756,-102,62,12,-52,40
-48,19,112,141,0,-48,-761,-102,67,14,-57,43
-43,9,112,151,4,-43,-756,-92,52,17,-47,30
-53,0,107,156,4,-34,-761,-92,53,26,-53,26
-53,-19,107,146,4,-43,-775,-102,34,36,-43,7
-82,-34,102,131,-9,-53,-795,-112,48,58,-65,7
-97,-48,92,122,-9,-53,-810,-117,49,72,-73,0
-97,-39,82,117,-9,-53,-819,-122,58,68,-77,9
-48,0,87,122,0,-39,-824,-117,48,24,-48,24
0,24,92,122,0,-34,-829,-107,24,-12,-12,24
0,39,97,122,9,-34,-834,-97,39,-19,-19,39
14,53,102,126,0,-34,-839,-92,39,-33,-12,46
-9,39,107,126,4,-34,-849,-92,48,-15,-28,43
-14,39,102,122,4,-34,-849,-92,53,-12,-33,46
-9,39,92,122,4,-39,-849,-92,48,-15,-28,43
4,53,92,126,4,-39,-858,-92,49,-28,-22,51
-9,43,82,112,-4,-48,-878,-102,52,-17,-30,47
-4,34,73,102,-14,-48,-883,-97,38,-15,-21,36
-19,14,48,82,-24,-43,-883,-112,33,2,-26,23
-43,-29,24,58,-43,-63,-888,-122,14,36,-28,-7
-39,-29,24,63,-43,-63,-902,-112,10,34,-24,-9
0,-9,19,58,-34,-63,-897,-107,-9,4,4,-9
4,19,14,58,-29,-63,-888,-102,15,-11,-5,17
14,29,19,63,-19,-58,-873,-97,15,-21,0,22
14,29,24,63,-19,-48,-873,-87,15,-21,0,22
14,14,24,58,-24,-53,-893,-92,0,-14,7,7
0,9,19,53,-34,-53,-902,-97,9,-4,-4,9
0,9,19,53,-34,-53,-902,-97,9,-4,-4,9
-9,-14,9,39,-39,-58,-912,-117,-5,11,-2,-9
-14,-19,24,39,-43,-68,-922,-122,-5,16,-4,-12
-24,-34,34,39,-48,-78,-941,-131,-10,29,-7,-22
-29,-43,34,34,-58,-87,-951,-141,-14,36,-7,-28
-14,-19,43,53,-48,-78,-936,-131,-5,16,-4,-12
-19,-14,53,63,-43,-73,-946,-131,5,16,-12,-4
-4,9,63,73,-39,-63,-941,-122,13,-2,-8,11
9,34,73,82,-34,-58,-927,-107,25,-21,-8,29
-4,14,68,78,-43,-63,-912,-117,18,-5,-11,16
-14,4,63,73,-48,-68,-907,-126,18,5,-16,11
-53,-24,58,58,-63,-82,-912,-136,29,38,-41,2
-87,-63,53,48,-63,-87,-897,-151,24,75,-55,-19
-107,-97,34,29,-82,-97,-878,-161,10,102,-58,-43
-117,-112,29,19,-92,-107,-868,-161,5,114,-61,-53
-136,-126,24,14,-102,-122,-858,-165,10,131,-73,-58
-141,-141,14,9,-107,-131,-849,-165,0,141,-70,-70
-97,-87,29,24,-82,-107,-834,-146,10,92,-53,-38
-58,-53,53,34,-73,-92,-819,-141,5,55,-31,-24
-19,-14,73,48,-63,-82,-795,-126,5,16,-12,-4
9,9,87,58,-53,-73,-780,-122,0,-9,4,4
-34,-39,63,34,-73,-107,-790,-146,-5,36,-14,-22
-78,-92,43,24,-87,-122,-805,-161,-14,85,-32,-53
-136,-136,29,14,-102,-136,-814,-170,0,136,-68,-68
-195,-175,9,4,-117,-151,-819,-180,20,185,-107,-77
-161,-146,24,24,-112,-131,-795,-165,15,153,-88,-65
-131,-117,39,29,-107,-126,-780,-161,14,124,-72,-51
-97,-82,53,39,-97,-117,-766,-146,15,89,-56,-33
-63,-53,68,48,-82,-107,-741,-131,10,58,-36,-21
-78,-68,58,43,-82,-117,-732,-136,10,73,-44,-29
-82,-78,63,43,-87,-112,-732,-141,4,80,-43,-37
-87,-82,63,39,-92,-112,-736,-146,5,84,-46,-38
-92,-78,63,29,-97,-117,-736,-151,14,85,-53,-32
-82,-78,63,29,-92,-112,-727,-136,4,80,-43,-37
-73,-78,58,29,-87,-102,-707,-131,-5,75,-34,-41
-58,-58,58,29,-82,-92,-688,-126,0,58,-29,-29
-39,-29,63,29,-73,-78,-668,-117,10,34,-24,-9
-58,-39,53,34,-87,-87,-668,-126,19,48,-38,-10
-68,-63,53,34,-92,-97,-683,-136,5,65,-36,-29
-97,-87,48,24,-102,-117,-697,-151,10,92,-53,-38
-107,-102,43,19,-117,-131,-717,-165,5,104,-56,-48
-112,-122,39,9,-117,-141,-712,-156,-10,117,-51,-66
-117,-126,39,14,-112,-136,-697,-156,-9,121,-54,-67
-102,-117,43,14,-112,-131,-692,-156,-15,109,-43,-66
-107,-117,48,14,-107,-131,-688,-151,-10,112,-48,-63
-82,-102,58,24,-102,-126,-678,-141,-20,92,-31,-61
-78,-97,58,29,-97,-122,-668,-141,-19,87,-29,-58
-82,-87,58,29,-97,-117,-663,-141,-5,84,-38,-46
-68,-73,63,34,-92,-117,-668,-141,-5,70,-31,-39
-73,-53,73,43,-82,-97,-668,-126,20,63,-46,-16
-82,-63,73,43,-73,-97,-653,-122,19,72,-50,-22
-87,-87,82,48,-92,-117,-653,-141,0,87,-43,-43
-92,-97,87,53,-102,-131,-683,-165,-5,94,-43,-51
-107,-102,97,92,-87,-126,-688,-175,5,104,-56,-48
-151,-141,97,112,-63,-126,-692,-190,10,146,-80,-65
-185,-175,117,126,-58,-136,-692,-190,10,180,-97,-82
-175,-156,126,146,-9,-97,-678,-180,19,165,-97,-68
-126,-97,141,156,58,-24,-644,-151,29,111,-77,-34
-43,-48,117,151,136,73,-590,-97,-5,45,-19,-26
9,-43,48,112,204,156,-522,-58,-52,17,30,-47
9,-58,-24,43,239,244,-448,-29,-67,24,38,-62
4,-39,-63,-9,297,351,-370,24,-43,17,23,-41
78,43,-102,-53,400,512,-268,117,-35,-60,56,4
214,141,-151,-126,497,702,-126,229,-73,-177,143,34
366,248,-219,-244,580,883,9,336,-118,-307,242,65
473,336,-322,-390,644,1054,122,439,-137,-404,305,99
497,346,-463,-580,649,1176,214,522,-151,-421,324,97
517,361,-605,-785,610,1229,297,575,-156,-439,336,102
600,453,-712,-956,595,1302,366,624,-147,-526,373,153
688,570,-766,-1039,580,1342,395,673,-118,-629,403,226
668,580,-795,-1098,478,1234,351,658,-88,-624,378,246
605,517,-854,-1200,239,971,248,585,-88,-561,346,214
527,444,-902,-1288,-24,663,117,507,-83,-485,305,180
429,351,-888,-1317,-263,366,-48,419,-78,-390,253,136
341,263,-854,-1337,-483,73,-229,297,-78,-302,209,92
273,141,-878,-1361,-683,-204,-400,161,-132,-207,202,4
165,9,-902,-1356,-858,-453,-561,24,-156,-87,160,-73
92,-43,-868,-1273,-971,-619,-673,-58,-135,-24,113,-89
82,-39,-785,-1185,-990,-663,-736,-97,-121,-21,101,-80
117,-29,-688,-1054,-917,-614,-732,-102,-146,-44,131,-87
131,-34,-595,-902,-800,-541,-727,-112,-165,-48,148,-99
122,-53,-536,-775,-692,-492,-771,-136,-175,-34,148,-114
102,-87,-463,-668,-614,-463,-800,-161,-189,-7,145,-138
82,-112,-390,-570,-561,-439,-805,-180,-194,15,138,-153
43,-131,-307,-483,-507,-405,-810,-195,-174,44,108,-152
14,-122,-263,-400,-439,-375,-819,-204,-136,54,75,-129
-9,-117,-209,-312,-366,-331,-819,-204,-108,63,49,-112
-34,-126,-156,-239,-302,-283,-800,-190,-92,80,29,-109
-58,-136,-117,-190,-253,-239,-771,-185,-78,97,10,-107
-58,-117,-82,-156,-219,-204,-761,-170,-59,87,0,-88
-78,-102,-48,-117,-209,-204,-780,-180,-24,90,-27,-63
-107,-122,-24,-82,-190,-209,-775,-190,-15,114,-46,-68
-146,-146,-39,-63,-185,-200,-761,-200,0,146,-73,-73
-156,-165,-14,-34,-170,-185,-746,-204,-9,160,-73,-87
-161,-175,0,-24,-151,-175,-732,-200,-14,168,-73,-94
-141,-146,19,-9,-136,-165,-717,-195,-5,143,-68,-75
-107,-107,39,9,-117,-151,-702,-185,0,107,-53,-53
-117,-122,34,19,-102,-141,-678,-175,-5,119,-56,-63
-117,-102,43,24,-102,-136,-649,-175,15,109,-66,-43
-122,-122,43,29,-97,-136,-634,-175,0,122,-61,-61
-122,-126,39,29,-97,-136,-610,-175,-4,124,-59,-65
-87,-82,53,53,-78,-117,-595,-161,5,84,-46,-38
-53,-48,68,58,-63,-112,-570,-156,5,50,-29,-21
-39,-24,73,58,-58,-97,-541,-146,15,31,-27,-4
-24,-9,78,63,-53,-92,-527,-136,15,16,-19,3
-39,-24,68,63,-53,-82,-541,-136,15,31,-27,-4
-53,-29,73,68,-53,-82,-536,-136,24,41,-38,-2
-63,-39,73,73,-53,-82,-541,-136,24,51,-43,-7
-73,-43,78,73,-53,-78,-551,-141,30,58,-51,-6
-73,-43,87,63,-53,-82,-561,-141,30,58,-51,-6
-68,-43,87,68,-43,-87,-570,-141,25,55,-46,-9
-68,-34,87,78,-39,-82,-580,-136,34,51,-51,0
-63,-29,87,68,-39,-87,-580,-136,34,46,-48,2
-63,-29,82,73,-48,-82,-595,-141,34,46,-48,2
-53,-29,82,78,-43,-78,-605,-141,24,41,-38,-2
-53,-29,87,82,-43,-73,-610,-136,24,41,-38,-2
-53,-19,87,92,-43,-68,-614,-136,34,36,-43,7
-24,-19,87,102,-48,-68,-624,-131,5,21,-14,-7
-24,-19,87,97,-43,-68,-634,-131,5,21,-14,-7
-39,-24,82,92,-43,-63,-634,-126,15,31,-27,-4
-39,-24,73,87,-39,-78,-634,-126,15,31,-27,-4
-53,-43,63,73,-48,-87,-639,-136,10,48,-31,-16
-68,-78,63,68,-48,-87,-644,-146,-10,73,-29,-44
-82,-97,63,68,-63,-92,-644,-151,-15,89,-33,-56
-87,-112,63,73,-53,-92,-644,-151,-25,99,-31,-68
-107,-82,73,78,-43,-73,-629,-141,25,94,-66,-28
-92,-63,73,78,-39,-73,-614,-141,29,77,-60,-17
-87,-53,73,78,-34,-73,-600,-141,34,70,-60,-9
-82,-58,73,78,-29,-78,-585,-146,24,70,-53,-17
-73,-53,73,78,-24,-68,-551,-146,20,63,-46,-16
-82,-48,73,78,-24,-63,-541,-136,34,65,-58,-7
-68,-43,73,82,-9,-53,-512,-136,25,55,-46,-9
-39,-29,73,82,-9,-48,-488,-136,10,34,-24,-9
-68,-63,63,78,-19,-58,-492,-146,5,65,-36,-29
-112,-92,58,73,-29,-68,-488,-151,20,102,-66,-36
-141,-122,53,68,-29,-73,-502,-161,19,131,-80,-51
-156,-141,53,68,-43,-73,-507,-170,15,148,-85,-63
-107,-97,68,78,-29,-43,-483,-141,10,102,-58,-43
-78,-68,68,82,-19,-34,-473,-122,10,73,-44,-29
-34,-43,73,92,-4,-24,-458,-112,-9,38,-12,-26
-19,-14,73,112,14,-14,-444,-107,5,16,-12,-4
-24,-9,73,107,9,-14,-444,-117,15,16,-19,3
-24,-9,73,107,9,-19,-453,-122,15,16,-19,3
-24,-14,73,102,19,-24,-468,-122,10,19,-17,-2
-29,-14,78,97,29,-19,-468,-112,15,21,-22,0
-9,-4,92,117,43,4,-439,-92,5,6,-7,0
0,4,92,122,53,9,-419,-87,4,-2,-2,4
14,24,87,126,58,24,-419,-78,10,-19,2,17
34,29,87,131,73,34,-400,-73,-5,-31,19,12
24,34,78,131,78,34,-390,-78,10,-29,7,22
19,29,73,131,87,34,-385,-82,10,-24,4,19
14,14,73,126,92,39,-380,-87,0,-14,7,7
0,9,68,117,92,39,-385,-92,9,-4,-4,9
-4,-4,53,107,82,34,-395,-102,0,4,-2,-2
-9,-9,53,107,87,43,-390,-97,0,9,-4,-4
0,-9,53,117,97,48,-400,-92,-9,4,4,-9
9,-9,48,102,102,53,-405,-92,-18,0,13,-13
19,19,48,117,126,73,-429,-92,0,-19,9,9
34,9,53,117,131,82,-434,-87,-25,-21,29,-8
24,9,53,112,131,82,-444,-87,-15,-16,19,-3
14,-4,43,112,131,82,-453,-87,-18,-5,16,-11
43,4,53,117,151,112,-439,-82,-39,-23,41,-17
63,9,48,117,161,122,-424,-73,-54,-36,58,-22
68,9,48,117,170,136,-419,-68,-59,-38,63,-25
73,9,48,117,180,141,-414,-58,-64,-41,68,-27
63,4,39,117,175,141,-414,-63,-59,-33,61,-27
73,0,39,117,180,146,-400,-58,-73,-36,73,-36
82,9,39,117,190,156,-395,-58,-73,-45,77,-32
87,14,34,112,195,165,-380,-53,-73,-50,80,-29
73,4,14,97,190,161,-380,-63,-69,-38,71,-32
68,4,0,87,180,151,-380,-63,-64,-36,66,-30
39,-19,-9,73,175,146,-380,-63,-58,-10,48,-38
48,-9,-9,68,170,141,-390,-63,-57,-19,52,-33
68,4,-9,68,175,151,-390,-58,-64,-36,66,-30
107,19,-9,73,180,156,-375,-48,-88,-63,97,-34
136,48,-4,78,185,165,-375,-29,-88,-92,112,-20
165,82,-4,73,190,180,-375,-24,-83,-123,124,0
156,63,-9,63,170,161,-400,-39,-93,-109,124,-15
117,34,-19,58,165,146,-424,-48,-83,-75,100,-24
73,4,-34,48,151,131,-458,-63,-69,-38,71,-32
24,-48,-39,29,131,112,-492,-92,-72,12,48,-60
4,-73,-43,34,126,117,-492,-87,-77,34,40,-75
14,-78,-39,24,126,117,-488,-73,-92,32,53,-85
19,-68,-43,19,131,112,-473,-58,-87,24,53,-77
29,-53,-39,19,136,112,-483,-53,-82,12,55,-67
63,-19,-29,29,126,122,-488,-58,-82,-22,72,-50
73,0,-29,19,122,112,-468,-53,-73,-36,73,-36
82,29,-34,14,117,112,-478,-43,-53,-55,67,-12
92,53,-39,14,112,107,-483,-39,-39,-72,65,7
92,43,-34,24,102,92,-488,-53,-49,-67,70,-3
87,24,-29,19,92,92,-492,-58,-63,-55,75,-19
73,19,-24,14,87,78,-488,-68,-54,-46,63,-17
68,0,-19,9,82,68,-478,-73,-68,-34,68,-34
53,-9,-24,4,73,63,-478,-87,-62,-22,57,-35
53,0,-29,-4,68,53,-478,-92,-53,-26,53,-26
53,0,-34,-9,58,43,-478,-97,-53,-26,53,-26
43,0,-39,-9,48,43,-483,-97,-43,-21,43,-21
34,0,-29,-4,43,43,-478,-97,-34,-17,34,-17
34,0,-19,0,43,43,-463,-97,-34,-17,34,-17
34,-4,-19,4,43,43,-429,-87,-38,-15,36,-21
29,-4,-19,4,39,34,-414,-97,-33,-12,31,-18
14,-14,-14,-4,24,34,-409,-87,-28,0,21,-21
9,-24,-14,-14,14,19,-409,-87,-33,7,21,-28
19,-19,-9,-4,14,14,-409,-82,-38,0,28,-28
19,-14,-4,-4,9,14,-409,-78,-33,-2,26,-23
34,4,9,14,9,14,-380,-78,-30,-19,32,-13
53,24,9,19,9,14,-375,-73,-29,-38,41,-2
48,9,4,19,0,4,-370,-73,-39,-28,43,-15
29,-4,4,24,0,0,-356,-78,-33,-12,31,-18
19,0,9,24,0,-4,-370,-97,-19,-9,19,-9
4,-19,9,19,-9,-14,-390,-102,-23,7,13,-21
-9,-43,9,9,-14,-34,-405,-102,-34,26,12,-38
-14,-29,9,4,-19,-39,-409,-102,-15,21,0,-22
-19,-24,4,9,-24,-48,-405,-102,-5,21,-7,-14
-29,-29,9,14,-29,-48,-409,-102,0,29,-14,-14
-39,-9,19,19,-39,-53,-395,-102,30,24,-34,10
-39,-29,19,19,-43,-53,-380,-102,10,34,-24,-9
-53,-58,29,24,-43,-68,-390,-97,-5,55,-24,-31
-63,-53,43,24,-48,-68,-405,-102,10,58,-36,-21
-43,-34,48,29,-48,-68,-405,-107,9,38,-26,-12
-34,-29,58,34,-39,-68,-405,-112,5,31,-19,-12
-19,-9,53,39,-39,-63,-395,-107,10,14,-14,0
-39,-9,58,43,-53,-68,-409,-102,30,24,-34,10
-43,-9,63,39,-58,-73,-424,-107,34,26,-38,12
-53,-14,73,43,-63,-73,-429,-112,39,33,-46,12
-58,-39,78,53,-78,-92,-439,-117,19,48,-38,-10
-63,-29,78,53,-78,-97,-448,-117,34,46,-48,2
-78,-53,78,63,-73,-102,-463,-122,25,65,-51,-14
-122,-92,82,68,-73,-112,-473,-136,30,107,-76,-31
-126,-82,78,58,-73,-112,-458,-136,44,104,-85,-19
-92,-48,82,58,-78,-112,-448,-131,44,70,-68,-2
-78,-39,78,58,-87,-117,-429,-131,39,58,-58,0
-68,-29,73,58,-92,-122,-409,-136,39,48,-53,5
-58,-29,78,63,-78,-117,-385,-131,29,43,-43,0
-58,-29,82,73,-73,-112,-380,-126,29,43,-43,0
-53,-24,97,82,-68,-107,-380,-117,29,38,-41,2
-53,-24,102,87,-63,-112,-375,-112,29,38,-41,2
-63,-29,87,73,-78,-122,-356,-122,34,46,-48,2
-92,-43,82,63,-82,-122,-351,-126,49,67,-70,3
-102,-53,78,58,-87,-122,-356,-131,49,77,-75,-2
-122,-68,78,58,-92,-126,-341,-141,54,95,-88,-7
-107,-48,87,73,-87,-122,-322,-126,59,77,-83,5
-97,-48,92,78,-87,-117,-317,-131,49,72,-73,0
-92,-39,92,82,-82,-122,-322,-126,53,65,-72,7
-97,-24,97,87,-73,-117,-317,-117,73,60,-85,24
-107,-43,87,73,-78,-122,-317,-122,64,75,-85,10
-102,-53,82,68,-87,-131,-307,-126,49,77,-75,-2
-131,-63,82,63,-92,-136,-307,-131,68,97,-99,2
-141,-58,78,63,-97,-136,-302,-131,83,99,-112,12
-102,-29,97,82,-82,-122,-297,-112,73,65,-87,22
-78,-14,112,87,-73,-112,-297,-107,64,46,-71,25
-63,-4,117,92,-68,-107,-307,-112,59,33,-61,27
-58,-4,117,97,-63,-117,-317,-117,54,31,-56,25
-78,-19,102,82,-78,-122,-317,-122,59,48,-68,20
-92,-48,97,78,-92,-126,-331,-126,44,70,-68,-2
-122,-68,87,68,-97,-136,-336,-136,54,95,-88,-7
-151,-73,82,58,-102,-141,-346,-146,78,112,-114,2
-151,-73,92,68,-82,-122,-336,-131,78,112,-114,2
-131,-63,97,78,-68,-107,-326,-117,68,97,-99,2
-107,-29,97,82,-53,-87,-317,-102,78,68,-92,24
-92,-29,102,87,-48,-78,-307,-97,63,60,-77,17
-82,-14,117,92,-43,-68,-292,-87,68,48,-75,27
-58,0,117,97,-34,-58,-263,-87,58,29,-58,29
-39,24,136,107,-29,-39,-248,-87,63,7,-51,43
4,68,141,126,-9,-39,-229,-68,64,-36,-30,66
-112,-39,112,92,-39,-63,-214,-97,73,75,-92,17
-97,-9,126,112,-29,-48,-195,-78,88,53,-92,39
-53,19,126,122,-19,-39,-161,-78,72,17,-62,45
-48,9,131,122,-19,-43,-151,-82,57,19,-52,33
-58,0,136,107,-19,-39,-146,-78,58,29,-58,29
-43,14,136,107,-19,-48,-141,-78,57,14,-50,35
-39,19,136,107,-19,-48,-136,-78,58,10,-48,38
-34,24,136,107,-19,-48,-131,-78,58,5,-46,41
-29,29,136,107,-19,-48,-126,-78,58,0,-43,43
-24,48,156,122,-4,-34,-122,-63,72,-12,-48,60
-19,58,161,131,0,-29,-117,-63,77,-19,-48,67
-4,58,165,141,4,-24,-102,-53,62,-27,-33,60
-4,58,165,146,4,-14,-97,-53,62,-27,-33,60
-14,29,156,136,-4,-34,-112,-63,43,-7,-28,36
-53,4,151,122,-19,-43,-122,-73,57,24,-55,30
-78,-19,141,112,-19,-43,-126,-78,59,48,-68,20
-87,-19,131,107,-19,-43,-126,-82,68,53,-77,24
-53,0,117,107,-9,-39,-126,-78,53,26,-53,26
-19,14,112,102,-9,-34,-126,-68,33,2,-26,23
-34,19,107,97,0,-34,-126,-58,53,7,-43,36
-34,24,102,97,-9,-34,-126,-53,58,5,-46,41
-34,39,112,102,-14,-24,-146,-43,73,-2,-53,56
-24,48,112,92,-14,-24,-146,-43,72,-12,-48,60
-4,58,107,87,-14,-29,-146,-43,62,-27,-33,60
24,82,112,87,-14,-29,-156,-43,58,-53,-17,70
14,82,102,92,-14,-29,-175,-43,68,-48,-27,75
24,82,102,92,-14,-29,-180,-39,58,-53,-17,70
14,73,87,82,-14,-24,-180,-53,59,-43,-22,66
-4,39,73,68,-24,-43,-185,-63,43,-17,-23,41
-24,9,78,58,-43,-48,-209,-78,33,7,-28,21
0,9,68,48,-43,-53,-214,-78,9,-4,-4,9
-9,19,58,43,-48,-58,-214,-78,28,-5,-18,23
-14,9,58,43,-48,-58,-209,-78,23,2,-18,16
-9,14,63,43,-43,-43,-200,-73,23,-2,-16,18
-4,4,63,39,-43,-43,-219,-73,8,0,-6,6
-14,4,58,34,-48,-39,-229,-73,18,5,-16,11
-9,9,58,34,-43,-34,-229,-68,18,0,-13,13
-9,9,48,24,-48,-34,-229,-78,18,0,-13,13
-4,19,63,29,-43,-39,-229,-73,23,-7,-13,21
-4,19,73,34,-39,-43,-239,-73,23,-7,-13,21
0,24,73,34,-39,-48,-239,-73,24,-12,-12,24
0,29,73,43,-29,-39,-248,-73,29,-14,-14,29
-19,14,73,43,-34,-43,-263,-82,33,2,-26,23
-19,19,73,43,-39,-43,-263,-82,38,0,-28,28
-19,24,73,43,-43,-48,-253,-78,43,-2,-31,33
-48,-4,68,39,-58,-68,-263,-92,44,26,-46,20
-63,-24,63,34,-68,-78,-273,-107,39,43,-51,7
-107,-63,58,19,-87,-97,-292,-122,44,85,-75,-9
-146,-112,53,9,-92,-107,-292,-141,34,129,-90,-39
-126,-102,53,19,-92,-102,-283,-126,24,114,-75,-39
-117,-92,58,19,-92,-97,-283,-122,25,104,-71,-33
-117,-82,63,24,-92,-97,-283,-122,35,99,-76,-23
-102,-73,63,29,-87,-92,-283,-117,29,87,-65,-22
-78,-34,68,24,-73,-82,-268,-107,44,56,-61,5
-48,-14,82,24,-73,-73,-263,-102,34,31,-41,10
-19,9,92,29,-73,-68,-248,-87,28,5,-23,18
0,19,97,29,-73,-63,-244,-82,19,-9,-9,19
-34,-14,82,24,-87,-87,-253,-97,20,24,-27,3
-58,-43,73,24,-87,-92,-258,-102,15,50,-36,-14
-97,-63,68,24,-87,-97,-258,-102,34,80,-65,-14
-136,-78,58,24,-87,-102,-253,-102,58,107,-97,-10
-122,-68,58,24,-92,-102,-253,-102,54,95,-88,-7
-112,-68,58,19,-97,-107,-253,-112,44,90,-78,-12
-97,-63,58,19,-97,-107,-253,-112,34,80,-65,-14
-82,-63,58,19,-92,-107,-244,-112,19,72,-50,-22
-82,-63,68,9,-87,-107,-234,-122,19,72,-50,-22
-82,-68,73,14,-87,-102,-234,-122,14,75,-48,-27
-82,-68,73,14,-87,-102,-239,-122,14,75,-48,-27
-82,-58,73,9,-87,-107,-239,-122,24,70,-53,-17
-87,-63,78,14,-92,-107,-234,-112,24,75,-55,-19
-82,-58,78,19,-87,-102,-219,-112,24,70,-53,-17
-73,-34,82,24,-82,-97,-204,-112,39,53,-56,2
-58,0,92,29,-73,-87,-190,-107,58,29,-58,29
-68,-14,78,24,-87,-92,-185,-117,54,41,-61,20
-78,-43,73,24,-92,-97,-185,-117,35,60,-56,-4
-107,-73,63,14,-102,-112,-185,-122,34,90,-70,-19
-117,-92,53,9,-117,-122,-190,-126,25,104,-71,-33
-117,-82,58,9,-107,-112,-175,-117,35,99,-76,-23
-117,-78,58,14,-102,-107,-161,-117,39,97,-78,-19
-97,-58,63,14,-102,-102,-156,-117,39,77,-68,-9
-97,-48,68,14,-97,-102,-151,-112,49,72,-73,0
-82,-34,78,29,-87,-112,-131,-112,48,58,-65,7
-78,-39,78,29,-87,-112,-122,-112,39,58,-58,0
-82,-39,78,24,-92,-112,-117,-112,43,60,-62,2
-68,-34,82,24,-92,-117,-122,-112,34,51,-51,0
-102,-53,82,43,-82,-107,-102,-107,49,77,-75,-2
-131,-82,73,34,-92,-117,-107,-122,49,106,-90,-16
-195,-136,73,19,-112,-136,-136,-151,59,165,-127,-38
-219,-146,87,24,-122,-151,-156,-165,73,182,-146,-36
-175,-122,126,73,-107,-146,-141,-165,53,148,-114,-34
-131,-82,156,122,-63,-126,-126,-151,49,106,-90,-16
-68,-39,175,175,0,-87,-107,-122,29,53,-48,-5
-39,-9,175,195,58,-39,-82,-102,30,24,-34,10
-68,-48,141,165,97,4,-58,-92,20,58,-44,-14
-73,-68,78,112,156,82,-14,-68,5,70,-39,-31
-19,-24,48,73,214,195,34,-19,-5,21,-7,-14
9,9,14,34,278,302,97,39,0,-9,4,4
73,68,-24,-9,366,439,195,122,-5,-70,39,31
204,200,-53,-43,478,619,326,234,-4,-202,104,98
312,278,-131,-156,566,790,448,336,-34,-295,173,122
385,307,-268,-322,639,951,556,424,-78,-346,231,114
492,375,-400,-507,692,1122,678,517,-117,-433,304,129
575,463,-522,-688,697,1244,771,590,-112,-519,343,175
614,507,-653,-863,678,1337,834,653,-107,-560,360,200
629,541,-741,-985,683,1420,893,702,-88,-585,358,226
649,580,-785,-1078,649,1420,912,732,-69,-614,359,255
619,561,-844,-1166,488,1244,849,688,-58,-590,338,251
546,468,-912,-1278,239,941,717,614,-78,-507,312,195
400,356,-951,-1356,-53,605,536,497,-44,-378,222,156
283,253,-946,-1385,-312,268,361,380,-30,-268,156,111
253,195,-951,-1385,-512,-4,209,278,-58,-224,155,68
234,131,-927,-1361,-673,-224,68,170,-103,-182,168,14
185,58,-873,-1307,-829,-424,-73,63,-127,-121,156,-34
170,24,-810,-1224,-922,-561,-175,-9,-146,-97,158,-61
180,29,-736,-1117,-912,-575,-200,-39,-151,-104,165,-61
156,-9,-649,-985,-819,-546,-214,-63,-165,-73,160,-87
92,-102,-585,-854,-732,-512,-248,-102,-194,5,143,-148
73,-161,-517,-736,-663,-483,-302,-136,-234,44,153,-197
73,-165,-453,-639,-595,-453,-322,-151,-238,46,155,-201
4,-170,-370,-531,-522,-419,-326,-151,-174,83,89,-172
-43,-161,-307,-444,-448,-375,-341,-165,-118,102,37,-139
-34,-122,-244,-351,-380,-326,-341,-146,-88,78,27,-105
-9,-68,-161,-263,-307,-283,-322,-136,-59,38,25,-63
4,-39,-97,-180,-244,-234,-292,-122,-43,17,23,-41
9,-19,-58,-131,-204,-209,-283,-117,-28,5,18,-23
-29,-58,-34,-97,-190,-204,-292,-131,-29,43,0,-43
-78,-112,-19,-78,-180,-204,-302,-131,-34,95,-22,-73
-68,-82,14,-43,-141,-180,-278,-112,-14,75,-27,-48
-68,-48,39,-4,-107,-151,-263,-112,20,58,-44,-14
-107,-97,39,-4,-112,-161,-273,-136,10,102,-58,-43
-141,-136,39,-4,-102,-156,-273,-141,5,138,-73,-65
-151,-136,43,0,-97,-151,-273,-146,15,143,-83,-60
-146,-126,48,9,-87,-141,-273,-146,20,136,-83,-53
-107,-87,68,34,-73,-117,-258,-117,20,97,-63,-33
-68,-24,92,53,-63,-107,-229,-107,44,46,-56,10
-34,0,107,73,-48,-102,-214,-97,34,17,-34,17
4,39,117,87,-39,-97,-190,-87,35,-21,-15,37
-24,14,97,87,-34,-102,-200,-107,38,5,-31,26
-34,-9,97,78,-34,-112,-190,-117,25,21,-29,8
-63,-43,87,63,-43,-112,-175,-122,20,53,-41,-11
-92,-87,78,53,-53,-122,-175,-126,5,89,-48,-41
-82,-68,92,68,-39,-107,-161,-112,14,75,-48,-27
-82,-48,102,78,-34,-102,-136,-107,34,65,-58,-7
-78,-34,107,87,-29,-97,-122,-102,44,56,-61,5
-73,-14,117,92,-24,-87,-112,-102,59,43,-66,22
-73,-29,107,92,-24,-97,-117,-102,44,51,-58,7
-68,-34,107,97,-14,-97,-122,-102,34,51,-51,0
-68,-29,107,107,-9,-87,-126,-97,39,48,-53,5
-63,-29,107,97,-9,-87,-122,-97,34,46,-48,2
-68,-39,92,87,-14,-97,-131,-102,29,53,-48,-5
-63,-39,92,87,-14,-97,-136,-102,24,51,-43,-7
-68,-39,97,87,-19,-97,-136,-97,29,53,-48,-5
-73,-29,97,92,-24,-97,-136,-97,44,51,-58,7
-63,-19,112,97,-19,-92,-141,-102,44,41,-53,12
-63,-19,117,97,-14,-87,-156,-102,44,41,-53,12
-78,-24,117,97,-14,-78,-161,-97,54,51,-66,15
-78,-24,112,97,-9,-87,-165,-97,54,51,-66,15
-73,-19,92,92,0,-78,-170,-102,54,46,-63,17
-68,-39,92,87,0,-78,-175,-107,29,53,-48,-5
-63,-43,92,87,-14,-82,-175,-107,20,53,-41,-11
-48,-43,92,92,-4,-82,-175,-102,5,45,-26,-19
-78,-48,82,87,-9,-78,-165,-102,30,63,-54,-9
-73,-43,82,87,-9,-82,-165,-102,30,58,-51,-6
-78,-48,82,87,-9,-87,-165,-102,30,63,-54,-9
-82,-68,82,87,-9,-97,-165,-107,14,75,-48,-27
-87,-58,92,97,4,-92,-161,-107,29,72,-58,-14
-102,-58,92,97,4,-82,-161,-97,44,80,-73,-7
-92,-58,92,102,19,-68,-141,-97,34,75,-63,-12
-68,-48,92,102,19,-58,-126,-97,20,58,-44,-14
-78,-58,97,102,14,-58,-126,-107,20,68,-49,-19
-92,-63,97,102,19,-58,-117,-102,29,77,-60,-17
-92,-68,97,102,34,-53,-126,-102,24,80,-58,-22
-78,-63,102,107,34,-43,-126,-102,15,70,-46,-24
-48,-34,107,117,48,-29,-131,-87,14,41,-31,-10
-29,-9,107,122,48,-24,-131,-73,20,19,-24,5
4,9,112,131,53,-19,-126,-68,5,-6,0,7
9,34,112,151,63,-14,-122,-68,25,-21,-8,29
4,29,122,141,78,-9,-131,-58,25,-16,-10,27
4,29,122,146,78,-9,-141,-63,25,-16,-10,27
4,24,122,146,87,-9,-156,-63,20,-14,-8,22
0,24,126,146,97,0,-156,-53,24,-12,-12,24
-29,0,117,141,87,0,-170,-68,29,14,-29,14
-48,-24,102,131,82,-9,-185,-78,24,36,-36,0
-63,-39,82,122,73,-9,-219,-82,24,51,-43,-7
-73,-68,68,112,73,-14,-234,-92,5,70,-39,-31
-58,-39,82,122,87,0,-224,-78,19,48,-38,-10
-48,-29,82,131,97,4,-219,-73,19,38,-33,-5
-39,-29,87,136,102,14,-214,-68,10,34,-24,-9
-39,-19,87,136,102,19,-219,-63,20,29,-29,0
-24,-4,92,141,107,29,-214,-53,20,14,-22,8
-9,9,92,146,117,43,-195,-48,18,0,-13,13
19,29,92,161,131,53,-190,-43,10,-24,4,19
48,48,87,151,141,63,-180,-43,0,-48,24,24
43,43,82,151,146,68,-175,-48,0,-43,21,21
43,19,82,146,151,73,-161,-48,-24,-31,33,-2
19,4,78,136,151,68,-151,-53,-15,-11,17,-5
-4,-24,63,131,151,63,-141,-58,-20,14,8,-22
19,0,73,141,180,87,-126,-48,-19,-9,19,-9
43,19,68,146,190,102,-102,-34,-24,-31,33,-2
53,34,68,151,200,122,-87,-24,-19,-43,36,7
63,48,68,156,209,131,-73,-9,-15,-55,39,16
43,24,48,136,204,122,-82,-24,-19,-33,31,2
53,0,39,126,200,117,-68,-29,-53,-26,53,-26
63,-9,29,117,200,117,-63,-39,-72,-27,67,-40
68,-24,14,102,195,117,-48,-43,-92,-22,80,-58
82,4,24,107,214,131,-43,-29,-78,-43,80,-37
97,34,19,117,219,141,-29,-14,-63,-65,80,-14
87,39,19,122,229,156,-14,0,-48,-63,67,-4
117,78,29,136,239,170,-9,14,-39,-97,78,19
102,63,39,126,234,161,-24,0,-39,-82,70,12
117,58,39,122,229,156,-14,0,-59,-87,88,0
122,68,43,117,224,156,-19,9,-54,-95,88,7
126,82,43,102,219,161,-24,4,-44,-104,85,19
131,73,29,87,204,151,-29,0,-58,-102,94,7
107,53,19,87,204,146,-43,0,-54,-80,80,0
78,34,4,82,195,141,-68,-4,-44,-56,61,-5
43,-9,0,68,180,131,-92,-24,-52,-17,47,-30
48,-24,0,63,170,126,-107,-34,-72,-12,60,-48
63,-19,0,53,165,126,-117,-24,-82,-22,72,-50
73,0,-9,48,165,122,-117,-14,-73,-36,73,-36
87,24,-9,48,165,122,-141,-14,-63,-55,75,-19
87,24,0,58,156,122,-151,-24,-63,-55,75,-19
82,19,0,48,151,112,-136,-24,-63,-50,72,-22
78,24,-4,43,146,112,-151,-19,-54,-51,66,-15
73,24,-9,43,141,107,-161,-19,-49,-48,61,-12
82,34,-9,53,131,102,-175,-19,-48,-58,65,-7
87,24,-9,48,122,102,-190,-19,-63,-55,75,-19
82,29,-9,43,117,87,-195,-24,-53,-55,67,-12
87,19,-9,39,112,78,-195,-24,-68,-53,77,-24
73,9,-14,34,97,68,-200,-34,-64,-41,68,-27
73,9,-19,24,87,53,-204,-43,-64,-41,68,-27
73,0,-24,19,73,39,-209,-53,-73,-36,73,-36
63,-9,-29,19,58,34,-219,-58,-72,-27,67,-40
53,9,-19,14,58,34,-224,-48,-44,-31,48,-17
53,9,-9,19,63,34,-219,-48,-44,-31,48,-17
53,4,-9,24,68,34,-195,-39,-49,-28,51,-22
48,4,-9,24,68,24,-190,-48,-44,-26,46,-20
39,4,0,19,63,19,-185,-43,-35,-21,37,-15
39,4,4,14,53,9,-175,-48,-35,-21,37,-15
53,19,14,29,53,9,-165,-48,-34,-36,43,-7
58,34,24,34,48,14,-156,-48,-24,-46,41,5
63,39,29,48,48,14,-141,-48,-24,-51,43,7
73,53,29,48,48,14,-141,-43,-20,-63,46,16
58,34,24,43,39,4,-141,-43,-24,-46,41,5
29,14,24,43,39,0,-131,-48,-15,-21,22,0
0,9,19,43,24,-4,-126,-63,9,-4,-4,9
-24,-19,19,39,9,-14,-136,-73,5,21,-14,-7
-48,-53,19,29,0,-34,-141,-78,-5,50,-21,-29
-63,-48,19,24,-9,-39,-136,-82,15,55,-39,-16
-48,-29,14,19,-9,-39,-146,-73,19,38,-33,-5
-39,-29,19,24,-9,-39,-156,-73,10,34,-24,-9
-29,-4,29,29,-14,-43,-146,-73,25,16,-27,10
-9,-19,29,29,-14,-43,-136,-73,-10,14,0,-14
-24,-19,34,48,-9,-39,-126,-63,5,21,-14,-7
-34,-4,53,53,-9,-39,-141,-63,30,19,-32,13
-14,24,63,63,-4,-39,-141,-63,38,-5,-26,31
-4,39,78,73,9,-39,-141,-63,43,-17,-23,41
-19,19,63,58,-4,-48,-151,-63,38,0,-28,28
-58,-9,58,53,-24,-58,-175,-63,49,33,-53,20
-82,-39,53,39,-34,-68,-200,-73,43,60,-62,2
-112,-73,53,34,-43,-73,-214,-82,39,92,-75,-17
-63,-34,73,48,-39,-68,-204,-68,29,48,-46,-2
-24,19,78,53,-29,-58,-204,-58,43,2,-33,31
4,39,82,68,-14,-48,-209,-53,35,-21,-15,37
4,43,92,78,-4,-43,-209,-58,39,-23,-17,41
-48,4,82,68,-14,-53,-239,-68,52,22,-50,28
-43,0,82,58,-29,-63,-253,-73,43,21,-43,21
-58,-29,73,48,-48,-78,-258,-82,29,43,-43,0
-78,-58,63,39,-63,-92,-263,-97,20,68,-49,-19
-68,-39,73,39,-58,-87,-263,-87,29,53,-48,-5
-68,-29,73,43,-53,-82,-263,-87,39,48,-53,5
-63,-14,82,48,-48,-78,-268,-82,49,38,-56,17
-63,-4,82,48,-43,-82,-268,-82,59,33,-61,27
-34,14,97,68,-43,-73,-253,-78,48,10,-41,31
-34,24,102,73,-34,-63,-244,-68,58,5,-46,41
-14,39,107,82,-24,-53,-244,-58,53,-12,-33,46
-4,48,117,97,-14,-48,-224,-53,52,-22,-28,50
-34,29,117,92,-29,-63,-224,-58,63,2,-48,46
-48,9,112,87,-39,-68,-229,-73,57,19,-52,33
-68,0,102,82,-43,-82,-244,-78,68,34,-68,34
-97,-4,97,78,-43,-87,-248,-78,93,50,-95,44
-107,-24,92,73,-48,-92,-253,-82,83,65,-95,29
-102,-34,92,68,-58,-102,-248,-87,68,68,-85,17
-131,-43,97,63,-63,-107,-253,-92,88,87,-109,22
-141,-39,97,63,-68,-107,-253,-92,102,90,-121,31
-97,-19,112,73,-48,-97,-239,-78,78,58,-87,29
-78,-4,122,78,-43,-92,-239,-78,74,41,-76,35
-68,4,122,82,-43,-92,-248,-87,72,32,-70,38
-68,4,117,87,-43,-107,-258,-97,72,32,-70,38
-63,4,107,87,-53,-107,-253,-97,67,29,-65,35
-73,-19,107,87,-63,-107,-263,-97,54,46,-63,17
-97,-34,102,82,-63,-112,-263,-102,63,65,-80,14
-122,-34,102,78,-63,-112,-268,-107,88,78,-105,27
-141,-48,92,78,-68,-122,-278,-117,93,94,-117,22
-131,-53,97,87,-58,-117,-278,-107,78,92,-104,12
-117,-34,97,92,-48,-107,-278,-97,83,75,-100,24
-112,-48,102,97,-48,-107,-278,-97,64,80,-88,8
-97,-14,117,102,-39,-92,-273,-82,83,55,-90,34
-58,9,126,107,-24,-78,-244,-78,67,24,-62,38
-24,43,156,117,-14,-53,-229,-73,67,-9,-45,55
34,97,170,136,9,-48,-209,-48,63,-65,-14,80
-102,-39,131,102,-39,-82,-253,-97,63,70,-82,12
-156,-97,97,73,-58,-117,-263,-126,59,126,-107,-19
-200,-107,97,73,-68,-126,-268,-126,93,153,-146,-7
-175,-78,131,102,-48,-112,-258,-112,97,126,-136,9
-87,9,156,126,-9,-68,-204,-78,96,39,-91,52
-73,14,156,126,0,-58,-195,-73,87,29,-80,50
-68,19,156,126,0,-58,-185,-68,87,24,-77,53
-63,24,156,126,0,-58,-175,-63,87,19,-75,55
-58,29,156,126,0,-58,-165,-58,87,14,-72,58
-14,63,180,141,14,-43,-156,-39,77,-24,-45,70
9,97,190,161,29,-29,-146,-34,88,-53,-39,92
43,122,200,180,43,-14,-126,-19,79,-82,-18,100
63,146,204,195,53,4,-117,-14,83,-104,-10,114
29,107,195,175,43,-19,-131,-29,78,-68,-24,92
-24,63,180,151,19,-34,-141,-43,87,-19,-55,75
-63,19,161,131,9,-39,-146,-53,82,22,-72,50
-87,0,141,117,0,-43,-146,-63,87,43,-87,43
-39,29,146,126,4,-29,-136,-53,68,5,-53,48
0,53,141,122,9,-24,-136,-48,53,-26,-26,53
-9,68,136,117,24,-24,-136,-43,77,-29,-43,72
-4,82,131,117,19,-24,-136,-43,86,-39,-45,84
-34,68,126,112,4,-24,-136,-43,102,-17,-68,85
-34,58,122,102,4,-24,-136,-43,92,-12,-63,75
-24,48,112,97,4,-29,-136,-43,72,-12,-48,60
-4,53,112,97,4,-29,-146,-43,57,-24,-30,55
19,87,117,97,19,-9,-146,-24,68,-53,-24,77
53,112,122,102,24,0,-141,-9,59,-82,-3,85
68,126,112,97,29,14,-131,-14,58,-97,5,92
73,117,102,87,24,4,-126,-14,44,-95,14,80
39,73,92,73,0,-9,-165,-29,34,-56,2,53
48,58,78,58,-4,-24,-175,-39,10,-53,19,34
24,53,63,48,-14,-39,-180,-48,29,-38,-2,41
4,29,58,43,-19,-48,-180,-58,25,-16,-10,27
-24,0,43,29,-29,-63,-190,-63,24,12,-24,12
-53,-43,34,19,-43,-73,-219,-73,10,48,-31,-16
-97,-78,19,9,-63,-78,-239,-82,19,87,-58,-29
-126,-107,9,4,-73,-82,-248,-87,19,116,-72,-44
-78,-58,29,24,-43,-53,-229,-68,20,68,-49,-19
-24,0,63,48,-24,-39,-219,-53,24,12,-24,12
24,48,92,73,-4,-24,-219,-43,24,-36,0,36
78,102,112,92,9,-9,-209,-34,24,-90,27,63
53,78,97,82,-4,-24,-214,-39,25,-65,14,51
9,34,92,73,-14,-34,-234,-53,25,-21,-8,29
-14,9,87,63,-24,-39,-239,-58,23,2,-18,16
-39,-14,82,53,-34,-48,-234,-58,25,26,-32,5
-24,0,92,58,-19,-48,-229,-48,24,12,-24,12
-14,14,92,63,-19,-48,-234,-58,28,0,-21,21
-34,9,92,58,-29,-58,-248,-68,43,12,-38,26
-48,-4,92,58,-24,-58,-244,-82,44,26,-46,20
-53,-19,78,43,-39,-68,-239,-82,34,36,-43,7
-58,-24,78,39,-43,-68,-244,-82,34,41,-46,5
-73,-29,78,39,-48,-73,-248,-87,44,51,-58,7
-73,-34,73,39,-48,-73,-253,-87,39,53,-56,2
-78,-29,63,39,-48,-73,-263,-87,49,53,-63,10
-78,-34,73,34,-53,-73,-263,-92,44,56,-61,5
-78,-34,78,34,-58,-78,-253,-87,44,56,-61,5
-87,-48,78,29,-63,-82,-253,-92,39,67,-63,-4
-73,-48,78,24,-68,-92,-244,-102,25,60,-49,-11
-68,-53,73,24,-68,-92,-248,-102,15,60,-41,-19
-78,-48,73,24,-68,-92,-248,-97,30,63,-54,-9
-87,-39,68,24,-68,-92,-244,-92,48,63,-67,4
-102,-43,73,29,-63,-87,-239,-82,59,72,-80,8
-102,-48,78,29,-68,-87,-234,-92,54,75,-78,3
-97,-48,82,34,-68,-82,-229,-92,49,72,-73,0
-92,-53,87,39,-63,-78,-214,-92,39,72,-65,-7
-78,-34,78,29,-68,-78,-200,-82,44,56,-61,5
-73,-29,82,34,-68,-73,-204,-82,44,51,-58,7
-68,-19,82,34,-68,-73,-214,-82,49,43,-58,15
-63,0,82,29,-68,-78,-219,-82,63,31,-63,31
-92,-53,68,14,-82,-97,-234,-92,39,72,-65,-7
-112,-87,58,9,-87,-102,-229,-102,25,99,-68,-31
-126,-102,53,4,-92,-107,-224,-112,24,114,-75,-39
-136,-107,53,0,-92,-107,-219,-117,29,121,-82,-39
-107,-53,63,24,-82,-97,-195,-107,54,80,-80,0
-78,-34,73,34,-73,-87,-195,-97,44,56,-61,5
-68,-14,78,34,-68,-87,-195,-92,54,41,-61,20
-39,14,82,39,-68,-82,-200,-87,53,12,-46,33
-58,-4,78,34,-68,-82,-200,-87,54,31,-56,25
-68,-19,78,34,-63,-78,-190,-87,49,43,-58,15
-58,-19,82,29,-63,-73,-190,-87,39,38,-48,10
-68,-29,87,24,-58,-73,-190,-82,39,48,-53,5
-78,-29,82,29,-68,-82,-185,-92,49,53,-63,10
-87,-39,78,29,-68,-82,-180,-92,48,63,-67,4
-107,-43,73,24,-73,-82,-180,-92,64,75,-85,10
-107,-43,73,24,-73,-87,-190,-92,64,75,-85,10
-14,43,92,43,-53,-68,-161,-68,57,-14,-35,50
-34,24,122,53,-53,-68,-165,-73,58,5,-46,41
-68,0,141,68,-53,-68,-165,-73,68,34,-68,34
-112,-39,126,73,-63,-92,-156,-87,73,75,-92,17
-185,-112,107,73,-78,-117,-180,-136,73,148,-129,-19
-209,-141,136,122,-63,-126,-204,-151,68,175,-138,-36
-156,-87,175,175,-9,-87,-195,-131,69,121,-112,-9
-68,-9,175,195,68,-19,-131,-82,59,38,-63,25
29,48,161,204,156,82,-68,-24,19,-38,5,33
82,78,126,180,234,170,-24,0,-4,-80,43,37
87,73,78,122,292,253,14,29,-14,-80,50,29
107,87,34,63,356,351,87,78,-20,-97,63,33
170,126,-4,19,434,478,185,141,-44,-148,107,41
224,161,-82,-63,517,610,268,195,-63,-192,143,49
253,170,-209,-214,575,751,351,268,-83,-211,168,43
307,200,-366,-400,639,912,458,346,-107,-253,207,46
424,287,-507,-566,702,1073,580,448,-137,-355,280,75
605,434,-639,-717,766,1224,692,551,-171,-519,388,131
